#  Embedding energy in copper
#  Electron density        Energy (eV)
  0.00285586416 -0.109581889
  0.00571172831 -0.16309565
  0.00856759247 -0.207350924
  0.0114234566 -0.24656388
  0.0142793208 -0.282381104
  0.0171351849 -0.315668038
  0.0199910491 -0.346954752
  0.0228469133 -0.376597818
  0.0257027774 -0.404852712
  0.0285586416 -0.43191099
  0.0314145057 -0.457921233
  0.0342703699 -0.483001784
  0.037126234 -0.507249007
  0.0399820982 -0.530742657
  0.0428379624 -0.5535498
  0.0456938265 -0.575727482
  0.0485496907 -0.597324782
  0.0514055548 -0.618384334
  0.054261419 -0.63894341
  0.0571172831 -0.659034911
  0.0599731473 -0.67868809
  0.0628290115 -0.697928956
  0.0656848756 -0.716780945
  0.0685407398 -0.735265162
  0.0713966039 -0.753400716
  0.0742524681 -0.771205019
  0.0771083322 -0.78869395
  0.0799641964 -0.805882024
  0.0828200606 -0.822782639
  0.0856759247 -0.839408125
  0.0885317889 -0.855769872
  0.091387653 -0.871878395
  0.0942435172 -0.887743578
  0.0970993813 -0.903374498
  0.0999552455 -0.918779669
  0.10281111 -0.933967114
  0.105666974 -0.948944233
  0.108522838 -0.96371805
  0.111378702 -0.978295161
  0.114234566 -0.992681781
  0.11709043 -1.00688371
  0.119946295 -1.02090645
  0.122802159 -1.03475529
  0.125658023 -1.04843517
  0.128513887 -1.06193952
  0.131369751 -1.07523096
  0.134225615 -1.08831432
  0.13708148 -1.10119839
  0.139937344 -1.11389118
  0.142793208 -1.12640023
  0.145649072 -1.13873238
  0.148504936 -1.15089401
  0.1513608 -1.16289104
  0.154216664 -1.17472897
  0.157072529 -1.18641303
  0.159928393 -1.19794794
  0.162784257 -1.20933831
  0.165640121 -1.22058835
  0.168495985 -1.23170207
  0.171351849 -1.24268321
  0.174207714 -1.25353537
  0.177063578 -1.26426187
  0.179919442 -1.27486593
  0.182775306 -1.28535055
  0.18563117 -1.29571862
  0.188487034 -1.30597289
  0.191342899 -1.31611587
  0.194198763 -1.32615016
  0.197054627 -1.33607803
  0.199910491 -1.34590179
  0.202766355 -1.35562356
  0.205622219 -1.36524544
  0.208478083 -1.37476945
  0.211333948 -1.38419746
  0.214189812 -1.39353126
  0.217045676 -1.40277267
  0.21990154 -1.41192333
  0.222757404 -1.42098488
  0.225613268 -1.42995895
  0.228469133 -1.43884695
  0.231324997 -1.4476504
  0.234180861 -1.4563707
  0.237036725 -1.46500922
  0.239892589 -1.47356727
  0.242748453 -1.48204608
  0.245604318 -1.49044693
  0.248460182 -1.49877099
  0.251316046 -1.50701946
  0.25417191 -1.51519342
  0.257027774 -1.52329394
  0.259883638 -1.5313221
  0.262739502 -1.5392789
  0.265595367 -1.54716538
  0.268451231 -1.55498254
  0.271307095 -1.56273118
  0.274162959 -1.57041237
  0.277018823 -1.57802694
  0.279874687 -1.58557572
  0.282730552 -1.59305961
  0.285586416 -1.60047942
  0.28844228 -1.60783596
  0.291298144 -1.61513001
  0.294154008 -1.62236229
  0.297009872 -1.62953363
  0.299865737 -1.63664469
  0.302721601 -1.64369624
  0.305577465 -1.6506889
  0.308433329 -1.65762343
  0.311289193 -1.66450047
  0.314145057 -1.67132065
  0.317000921 -1.6780846
  0.319856786 -1.68479297
  0.32271265 -1.69144632
  0.325568514 -1.69804529
  0.328424378 -1.70459049
  0.331280242 -1.71108248
  0.334136106 -1.71752173
  0.336991971 -1.72390894
  0.339847835 -1.73024448
  0.342703699 -1.73652904
  0.345559563 -1.74276305
  0.348415427 -1.748947
  0.351271291 -1.75508144
  0.354127156 -1.76116685
  0.35698302 -1.7672037
  0.359838884 -1.77319246
  0.362694748 -1.77913361
  0.365550612 -1.78502759
  0.368406476 -1.79087488
  0.37126234 -1.79667585
  0.374118205 -1.80243097
  0.376974069 -1.80814072
  0.379829933 -1.81380541
  0.382685797 -1.81942556
  0.385541661 -1.82500147
  0.388397525 -1.83053366
  0.39125339 -1.83602238
  0.394109254 -1.84146812
  0.396965118 -1.84687125
  0.399820982 -1.85223213
  0.402676846 -1.85755108
  0.40553271 -1.86282851
  0.408388574 -1.86806478
  0.411244439 -1.87326023
  0.414100303 -1.87841522
  0.416956167 -1.88353007
  0.419812031 -1.8886051
  0.422667895 -1.89364068
  0.425523759 -1.89863716
  0.428379624 -1.90359485
  0.431235488 -1.90851396
  0.434091352 -1.91339496
  0.436947216 -1.91823808
  0.43980308 -1.92304363
  0.442658944 -1.92781193
  0.445514809 -1.93254327
  0.448370673 -1.93723792
  0.451226537 -1.94189624
  0.454082401 -1.94651842
  0.456938265 -1.9511048
  0.459794129 -1.95565567
  0.462649993 -1.96017131
  0.465505858 -1.96465196
  0.468361722 -1.96909787
  0.471217586 -1.97350935
  0.47407345 -1.97788665
  0.476929314 -1.98223004
  0.479785178 -1.98653978
  0.482641043 -1.99081611
  0.485496907 -1.99505928
  0.488352771 -1.99926952
  0.491208635 -2.0034471
  0.494064499 -2.00759228
  0.496920363 -2.01170531
  0.499776228 -2.01578637
  0.502632092 -2.01983571
  0.505487956 -2.02385362
  0.50834382 -2.02784026
  0.511199684 -2.03179589
  0.514055548 -2.03572077
  0.516911412 -2.03961504
  0.519767277 -2.04347901
  0.522623141 -2.04731282
  0.525479005 -2.05111675
  0.528334869 -2.05489101
  0.531190733 -2.05863574
  0.534046597 -2.06235124
  0.536902462 -2.06603771
  0.539758326 -2.06969501
  0.54261419 -2.07331046
  0.545470054 -2.07687727
  0.548325918 -2.08039617
  0.551181782 -2.08386787
  0.554037647 -2.08729302
  0.556893511 -2.09067238
  0.559749375 -2.09400661
  0.562605239 -2.09729637
  0.565461103 -2.10054229
  0.568316967 -2.10374501
  0.571172831 -2.10690505
  0.574028696 -2.11002307
  0.57688456 -2.11309964
  0.579740424 -2.11613534
  0.582596288 -2.11913073
  0.585452152 -2.1220863
  0.588308016 -2.12500252
  0.591163881 -2.12788003
  0.594019745 -2.1307193
  0.596875609 -2.13352068
  0.599731473 -2.13628485
  0.602587337 -2.13901212
  0.605443201 -2.14170303
  0.608299066 -2.14435801
  0.61115493 -2.14697748
  0.614010794 -2.14956188
  0.616866658 -2.15211167
  0.619722522 -2.15462715
  0.622578386 -2.15710888
  0.62543425 -2.15955709
  0.628290115 -2.16197226
  0.631145979 -2.16435482
  0.634001843 -2.16670501
  0.636857707 -2.16902325
  0.639713571 -2.17130995
  0.642569435 -2.17356544
  0.6454253 -2.17579005
  0.648281164 -2.17798405
  0.651137028 -2.18014785
  0.653992892 -2.18228178
  0.656848756 -2.18438615
  0.65970462 -2.18646128
  0.662560484 -2.18850747
  0.665416349 -2.19052502
  0.668272213 -2.19251424
  0.671128077 -2.19447542
  0.673983941 -2.19640885
  0.676839805 -2.19831481
  0.679695669 -2.20019359
  0.682551534 -2.20204547
  0.685407398 -2.20387073
  0.688263262 -2.20566964
  0.691119126 -2.20744236
  0.69397499 -2.20918926
  0.696830854 -2.21091058
  0.699686719 -2.21260661
  0.702542583 -2.21427753
  0.705398447 -2.21592355
  0.708254311 -2.21754501
  0.711110175 -2.21914217
  0.713966039 -2.22071508
  0.716821903 -2.22226415
  0.719677768 -2.22378959
  0.722533632 -2.2252915
  0.725389496 -2.22677026
  0.72824536 -2.22822597
  0.731101224 -2.22965891
  0.733957088 -2.23106929
  0.736812953 -2.23245729
  0.739668817 -2.23382316
  0.742524681 -2.23516706
  0.745380545 -2.23648923
  0.748236409 -2.23778986
  0.751092273 -2.23906912
  0.753948138 -2.24032731
  0.756804002 -2.24156443
  0.759659866 -2.24278087
  0.76251573 -2.24397672
  0.765371594 -2.24515215
  0.768227458 -2.24630743
  0.771083322 -2.24744269
  0.773939187 -2.24855807
  0.776795051 -2.24965382
  0.779650915 -2.25073014
  0.782506779 -2.2517871
  0.785362643 -2.25282492
  0.788218507 -2.25384381
  0.791074372 -2.25484393
  0.793930236 -2.25582545
  0.7967861 -2.25678848
  0.799641964 -2.2577332
  0.802497828 -2.25865983
  0.805353692 -2.2595685
  0.808209557 -2.26045937
  0.811065421 -2.26133262
  0.813921285 -2.26218838
  0.816777149 -2.26302682
  0.819633013 -2.26384809
  0.822488877 -2.26465234
  0.825344741 -2.26543972
  0.828200606 -2.2662104
  0.83105647 -2.2669645
  0.833912334 -2.26770219
  0.836768198 -2.26842361
  0.839624062 -2.26912891
  0.842479926 -2.26981823
  0.845335791 -2.27049172
  0.848191655 -2.27114953
  0.851047519 -2.27179179
  0.853903383 -2.27241865
  0.856759247 -2.27303024
  0.859615111 -2.27362666
  0.862470976 -2.27420808
  0.86532684 -2.27477466
  0.868182704 -2.27532653
  0.871038568 -2.27586384
  0.873894432 -2.27638662
  0.876750296 -2.27689508
  0.87960616 -2.27738938
  0.882462025 -2.27786964
  0.885317889 -2.27833589
  0.888173753 -2.27878836
  0.891029617 -2.27922719
  0.893885481 -2.27965243
  0.896741345 -2.28006423
  0.89959721 -2.28046277
  0.902453074 -2.2808481
  0.905308938 -2.28122037
  0.908164802 -2.28157976
  0.911020666 -2.28192626
  0.91387653 -2.28226012
  0.916732395 -2.2825814
  0.919588259 -2.28289022
  0.922444123 -2.28318675
  0.925299987 -2.283471
  0.928155851 -2.28374323
  0.931011715 -2.2840034
  0.933867579 -2.28425179
  0.936723444 -2.28448835
  0.939579308 -2.28471335
  0.942435172 -2.28492675
  0.945291036 -2.28512883
  0.9481469 -2.28531955
  0.951002764 -2.28549914
  0.953858629 -2.28566762
  0.956714493 -2.28582515
  0.959570357 -2.28597187
  0.962426221 -2.28610779
  0.965282085 -2.28623313
  0.968137949 -2.28634793
  0.970993813 -2.28645231
  0.973849678 -2.28654642
  0.976705542 -2.28663028
  0.979561406 -2.28670406
  0.98241727 -2.2867679
  0.985273134 -2.28682181
  0.988128998 -2.28686595
  0.990984863 -2.28690044
  0.993840727 -2.28692537
  0.996696591 -2.28694079
  0.999552455 -2.28694687
  1.00240832 -2.28694371
  1.00526418 -2.28693138
  1.00812005 -2.28690997
  1.01097591 -2.28687962
  1.01383178 -2.28684043
  1.01668764 -2.2867925
  1.0195435 -2.2867359
  1.02239937 -2.28667071
  1.02525523 -2.28659708
  1.0281111 -2.2865151
  1.03096696 -2.28642486
  1.03382282 -2.28632647
  1.03667869 -2.28622001
  1.03953455 -2.28610556
  1.04239042 -2.28598323
  1.04524628 -2.28585313
  1.04810215 -2.28571535
  1.05095801 -2.28556998
  1.05381387 -2.28541713
  1.05666974 -2.28525687
  1.0595256 -2.28508931
  1.06238147 -2.28491454
  1.06523733 -2.28473264
  1.06809319 -2.28454373
  1.07094906 -2.28434787
  1.07380492 -2.28414518
  1.07666079 -2.28393573
  1.07951665 -2.28371963
  1.08237252 -2.28349696
  1.08522838 -2.28326781
  1.08808424 -2.28303228
  1.09094011 -2.28279045
  1.09379597 -2.28254242
  1.09665184 -2.28228827
  1.0995077 -2.28202809
  1.10236356 -2.28176198
  1.10521943 -2.28149001
  1.10807529 -2.28121226
  1.11093116 -2.28092884
  1.11378702 -2.28063983
  1.11664289 -2.28034532
  1.11949875 -2.2800454
  1.12235461 -2.27974016
  1.12521048 -2.27942968
  1.12806634 -2.27911402
  1.13092221 -2.27879329
  1.13377807 -2.27846757
  1.13663393 -2.27813697
  1.1394898 -2.27780156
  1.14234566 -2.2774614
  1.14520153 -2.27711658
  1.14805739 -2.27676721
  1.15091326 -2.27641336
  1.15376912 -2.27605512
  1.15662498 -2.27569254
  1.15948085 -2.27532517
  1.16233671 -2.27495098
  1.16519258 -2.27456984
  1.16804844 -2.27418186
  1.1709043 -2.27378721
  1.17376017 -2.27338599
  1.17661603 -2.27297826
  1.1794719 -2.27256421
  1.18232776 -2.27214394
  1.18518363 -2.2717175
  1.18803949 -2.27128508
  1.19089535 -2.27084678
  1.19375122 -2.27040264
  1.19660708 -2.26995287
  1.19946295 -2.26949751
  1.20231881 -2.26903669
  1.20517467 -2.26857055
  1.20803054 -2.26809911
  1.2108864 -2.26762258
  1.21374227 -2.267141
  1.21659813 -2.2666545
  1.219454 -2.26616319
  1.22230986 -2.26566713
  1.22516572 -2.26516651
  1.22802159 -2.26466131
  1.23087745 -2.26415176
  1.23373332 -2.26363784
  1.23658918 -2.26311976
  1.23944504 -2.26259752
  1.24230091 -2.26207131
  1.24515677 -2.26154115
  1.24801264 -2.26100722
  1.2508685 -2.26046952
  1.25372437 -2.25992825
  1.25658023 -2.25938341
  1.25943609 -2.25883518
  1.26229196 -2.25828358
  1.26514782 -2.25772876
  1.26800369 -2.25717078
  1.27085955 -2.25660973
  1.27371541 -2.25604575
  1.27657128 -2.25547887
  1.27942714 -2.25490923
  1.28228301 -2.2543369
  1.28513887 -2.25376198
  1.28799473 -2.25318456
  1.2908506 -2.25260469
  1.29370646 -2.2520225
  1.29656233 -2.25143808
  1.29941819 -2.25085149
  1.30227406 -2.25026285
  1.30512992 -2.24967224
  1.30798578 -2.24907972
  1.31084165 -2.24848541
  1.31369751 -2.24788937
  1.31655338 -2.24729168
  1.31940924 -2.24669246
  1.3222651 -2.24609177
  1.32512097 -2.2454897
  1.32797683 -2.24488633
  1.3308327 -2.24428174
  1.33368856 -2.24367602
  1.33654443 -2.24306923
  1.33940029 -2.24246148
  1.34225615 -2.24185285
  1.34511202 -2.24124341
  1.34796788 -2.24063324
  1.35082375 -2.24002242
  1.35367961 -2.23941102
  1.35653547 -2.23879914
  1.35939134 -2.23818685
  1.3622472 -2.23757423
  1.36510307 -2.23696137
  1.36795893 -2.23634831
  1.3708148 -2.23573515
  1.37367066 -2.23512197
  1.37652652 -2.23450885
  1.37938239 -2.23389587
  1.38223825 -2.23328309
  1.38509412 -2.23267059
  1.38794998 -2.23205843
  1.39080584 -2.23144671
  1.39366171 -2.2308355
  1.39651757 -2.23022489
  1.39937344 -2.22961491
  1.4022293 -2.22900565
  1.40508517 -2.22839719
  1.40794103 -2.22778961
  1.41079689 -2.22718299
  1.41365276 -2.22657737
  1.41650862 -2.22597283
  1.41936449 -2.22536945
  1.42222035 -2.2247673
  1.42507621 -2.22416647
  1.42793208 -2.22356701
  1.43078794 -2.22296897
  1.43364381 -2.22237245
  1.43649967 -2.22177751
  1.43935554 -2.22118424
  1.4422114 -2.22059267
  1.44506726 -2.22000288
  1.44792313 -2.21941495
  1.45077899 -2.21882896
  1.45363486 -2.21824496
  1.45649072 -2.217663
  1.45934658 -2.21708316
  1.46220245 -2.21650553
  1.46505831 -2.21593016
  1.46791418 -2.21535711
  1.47077004 -2.21478643
  1.47362591 -2.21421822
  1.47648177 -2.21365255
  1.47933763 -2.21308948
  1.4821935 -2.21252902
  1.48504936 -2.21197129
  1.48790523 -2.21141635
  1.49076109 -2.21086427
  1.49361695 -2.21031507
  1.49647282 -2.20976884
  1.49932868 -2.20922565
  1.50218455 -2.20868557
  1.50504041 -2.20814863
  1.50789628 -2.2076149
  1.51075214 -2.20708449
  1.513608 -2.20655744
  1.51646387 -2.20603379
  1.51931973 -2.20551358
  1.5221756 -2.20499692
  1.52503146 -2.20448386
  1.52788732 -2.20397442
  1.53074319 -2.20346871
  1.53359905 -2.2029668
  1.53645492 -2.20246872
  1.53931078 -2.20197451
  1.54216664 -2.20148424
  1.54502251 -2.20099799
  1.54787837 -2.20051586
  1.55073424 -2.20003782
  1.5535901 -2.19956396
  1.55644597 -2.19909436
  1.55930183 -2.19862905
  1.56215769 -2.19816812
  1.56501356 -2.19771161
  1.56786942 -2.19725958
  1.57072529 -2.19681205
  1.57358115 -2.19636913
  1.57643701 -2.19593088
  1.57929288 -2.19549734
  1.58214874 -2.1950685
  1.58500461 -2.19464451
  1.58786047 -2.19422543
  1.59071634 -2.19381125
  1.5935722 -2.193402
  1.59642806 -2.19299786
  1.59928393 -2.19259882
  1.60213979 -2.19220487
  1.60499566 -2.19181612
  1.60785152 -2.1914327
  1.61070738 -2.19105454
  1.61356325 -2.1906817
  1.61641911 -2.19031437
  1.61927498 -2.18995249
  1.62213084 -2.18959606
  1.62498671 -2.1892453
  1.62784257 -2.18890015
  1.63069843 -2.18856061
  1.6335543 -2.1882269
  1.63641016 -2.18789895
  1.63926603 -2.18757679
  1.64212189 -2.18726059
  1.64497775 -2.1869503
  1.64783362 -2.186646
  1.65068948 -2.18634777
  1.65354535 -2.18605558
  1.65640121 -2.18576962
  1.65925708 -2.1854898
  1.66211294 -2.1852162
  1.6649688 -2.18494901
  1.66782467 -2.18468805
  1.67068053 -2.18443355
  1.6735364 -2.18418551
  1.67639226 -2.1839439
  1.67924812 -2.18370891
  1.68210399 -2.18348045
  1.68495985 -2.18325871
  1.68781572 -2.18304358
  1.69067158 -2.18283526
  1.69352745 -2.18263371
  1.69638331 -2.18243895
  1.69923917 -2.18225116
  1.70209504 -2.18207021
  1.7049509 -2.18189632
  1.70780677 -2.18172937
  1.71066263 -2.18156962
  1.71351849 -2.18141685
  1.71637436 -2.1812714
  1.71923022 -2.18113303
  1.72208609 -2.18100202
  1.72494195 -2.18087825
  1.72779782 -2.18076191
  1.73065368 -2.18065285
  1.73350954 -2.18055139
  1.73636541 -2.18045726
  1.73922127 -2.18037081
  1.74207714 -2.18029183
  1.744933 -2.18022058
  1.74778886 -2.18015688
  1.75064473 -2.18010105
  1.75350059 -2.18005284
  1.75635646 -2.18001251
  1.75921232 -2.17998003
  1.76206819 -2.17995538
  1.76492405 -2.17993874
  1.76777991 -2.17993001
  1.77063578 -2.17992939
  1.77349164 -2.17993674
  1.77634751 -2.17995231
  1.77920337 -2.17997594
  1.78205923 -2.18000782
  1.7849151 -2.18004794
  1.78777096 -2.18009622
  1.79062683 -2.18015304
  1.79348269 -2.18021806
  1.79633855 -2.18029153
  1.79919442 -2.18037351
  1.80205028 -2.18046383
  1.80490615 -2.18056286
  1.80776201 -2.18067038
  1.81061788 -2.18078644
  1.81347374 -2.18091133
  1.8163296 -2.18104476
  1.81918547 -2.18118698
  1.82204133 -2.18133805
  1.8248972 -2.18149779
  1.82775306 -2.1816665
  1.83060892 -2.1818441
  1.83346479 -2.18203054
  1.83632065 -2.18222609
  1.83917652 -2.1824306
  1.84203238 -2.18264411
  1.84488825 -2.18286679
  1.84774411 -2.1830986
  1.85059997 -2.18333954
  1.85345584 -2.18358968
  1.8563117 -2.18384916
  1.85916757 -2.18411788
  1.86202343 -2.18439581
  1.86487929 -2.18468331
  1.86773516 -2.18498012
  1.87059102 -2.18528629
  1.87344689 -2.18560206
  1.87630275 -2.18592732
  1.87915862 -2.18626211
  1.88201448 -2.1866064
  1.88487034 -2.18696047
  1.88772621 -2.1873242
  1.89058207 -2.18769751
  1.89343794 -2.18808055
  1.8962938 -2.18847351
  1.89914966 -2.18887622
  1.90200553 -2.18928876
  1.90486139 -2.18971107
  1.90771726 -2.19014348
  1.91057312 -2.19058423
  1.91342899 -2.19103214
  1.91628485 -2.19148731
  1.91914071 -2.19194974
  1.92199658 -2.19241965
  1.92485244 -2.19289689
  1.92770831 -2.19338158
  1.93056417 -2.19387379
  1.93342003 -2.19437357
  1.9362759 -2.19488108
  1.93913176 -2.19539618
  1.94198763 -2.19591903
  1.94484349 -2.19644963
  1.94769936 -2.19698802
  1.95055522 -2.19753446
  1.95341108 -2.19808875
  1.95626695 -2.19865106
  1.95912281 -2.19922135
  1.96197868 -2.19979973
  1.96483454 -2.20038624
  1.9676904 -2.20098096
  1.97054627 -2.201584
  1.97340213 -2.20219524
  1.976258 -2.20281485
  1.97911386 -2.20344279
  1.98196973 -2.20407916
  1.98482559 -2.20472401
  1.98768145 -2.20537732
  1.99053732 -2.20603935
  1.99339318 -2.20670992
  1.99624905 -2.20738921
  1.99910491 -2.20807713
  2.00196077 -2.20877383
  2.00481664 -2.20947931
  2.0076725 -2.21019361
  2.01052837 -2.21091683
  2.01338423 -2.21164891
  2.0162401 -2.21239004
  2.01909596 -2.21314009
  2.02195182 -2.21389933
  2.02480769 -2.21466763
  2.02766355 -2.21544508
  2.03051942 -2.21623174
  2.03337528 -2.21702758
  2.03623114 -2.21783274
  2.03908701 -2.21864715
  2.04194287 -2.21947097
  2.04479874 -2.22030412
  2.0476546 -2.22114677
  2.05051046 -2.22199884
  2.05336633 -2.22286046
  2.05622219 -2.22373162
  2.05907806 -2.22461236
  2.06193392 -2.22550277
  2.06478979 -2.22640281
  2.06764565 -2.22731262
  2.07050151 -2.22823211
  2.07335738 -2.22916146
  2.07621324 -2.23010057
  2.07906911 -2.23104961
  2.08192497 -2.23200849
  2.08478083 -2.23297736
  2.0876367 -2.23395617
  2.09049256 -2.23494501
  2.09334843 -2.2359439
  2.09620429 -2.23695286
  2.09906016 -2.23797197
  2.10191602 -2.23900119
  2.10477188 -2.24004067
  2.10762775 -2.24109029
  2.11048361 -2.24215026
  2.11333948 -2.24322043
  2.11619534 -2.24430103
  2.1190512 -2.24539189
  2.12190707 -2.24649324
  2.12476293 -2.24760493
  2.1276188 -2.24872719
  2.13047466 -2.24985995
  2.13333053 -2.25100327
  2.13618639 -2.25215713
  2.13904225 -2.2533216
  2.14189812 -2.25449669
  2.14475398 -2.25568243
  2.14760985 -2.25687889
  2.15046571 -2.25808603
  2.15332157 -2.25930396
  2.15617744 -2.26053261
  2.1590333 -2.26177216
  2.16188917 -2.2630226
  2.16474503 -2.26428399
  2.1676009 -2.26555621
  2.17045676 -2.26683944
  2.17331262 -2.26813354
  2.17616849 -2.26943872
  2.17902435 -2.27075483
  2.18188022 -2.27208207
  2.18473608 -2.27342045
  2.18759194 -2.27477006
  2.19044781 -2.2761307
  2.19330367 -2.27750259
  2.19615954 -2.27888558
  2.1990154 -2.28027988
  2.20187127 -2.28168532
  2.20472713 -2.28310234
  2.20758299 -2.28453055
  2.21043886 -2.28597017
  2.21329472 -2.28742106
  2.21615059 -2.28888341
  2.21900645 -2.29035707
  2.22186231 -2.29184249
  2.22471818 -2.29333925
  2.22757404 -2.29484758
  2.23042991 -2.29636732
  2.23328577 -2.29789868
  2.23614164 -2.29944168
  2.2389975 -2.30099642
  2.24185336 -2.30256267
  2.24470923 -2.30414063
