#  Electron density function in W
#  R(Angstroms)             Pairwise electron density contribution
   0.0000000000000000E+00   1.0000000000000000E+04
   4.7400000000000003E-04   5.7685048648638458E+03
   9.4800000000000006E-04   2.8817556778423250E+03
   1.4220000000000001E-03   1.9195073897130744E+03
   1.8960000000000001E-03   1.4383843253714188E+03
   2.3700000000000001E-03   1.1497113497970709E+03
   2.8440000000000002E-03   9.5726341798380759E+02
   3.3180000000000002E-03   8.1980122492942428E+02
   3.7920000000000002E-03   7.1670511813322184E+02
   4.2660000000000007E-03   6.3651973509517086E+02
   4.7400000000000003E-03   5.7237185831557667E+02
   5.2139999999999999E-03   5.1988762211310723E+02
   5.6880000000000003E-03   4.7615111603381052E+02
   6.1620000000000008E-03   4.3914363284058197E+02
   6.6360000000000004E-03   4.0742323879286261E+02
   7.1100000000000000E-03   3.7993251581445617E+02
   7.5840000000000005E-03   3.5587840034841622E+02
   8.0580000000000009E-03   3.3465443202785480E+02
   8.5320000000000014E-03   3.1578891945648104E+02
   9.0060000000000001E-03   2.9890947469002356E+02
   9.4800000000000006E-03   2.8371818737322496E+02
   9.9540000000000010E-03   2.6997389198055276E+02
   1.0428000000000000E-02   2.5747927126398929E+02
   1.0902000000000000E-02   2.4607132401878886E+02
   1.1376000000000001E-02   2.3561421590779622E+02
   1.1850000000000001E-02   2.2599384608792835E+02
   1.2324000000000002E-02   2.1711366769208340E+02
   1.2798000000000000E-02   2.0889143709284798E+02
   1.3272000000000001E-02   2.0125665975255245E+02
   1.3746000000000001E-02   1.9414856451814290E+02
   1.4220000000000000E-02   1.8751448305707814E+02
   1.4694000000000000E-02   1.8130854295079541E+02
   1.5168000000000001E-02   1.7549060583315125E+02
   1.5642000000000000E-02   1.7002539859460026E+02
   1.6116000000000002E-02   1.6488179790328343E+02
   1.6590000000000001E-02   1.6003223737964450E+02
   1.7064000000000003E-02   1.5545221357527643E+02
   1.7538000000000002E-02   1.5111987206330701E+02
   1.8012000000000000E-02   1.4701565888293317E+02
   1.8486000000000002E-02   1.4312202560787389E+02
   1.8960000000000001E-02   1.3942317865455499E+02
   1.9434000000000000E-02   1.3590486527690044E+02
   1.9908000000000002E-02   1.3255419013329731E+02
   2.0382000000000001E-02   1.2935945744886720E+02
   2.0856000000000000E-02   1.2631003470106448E+02
   2.1330000000000002E-02   1.2339623448052828E+02
   2.1804000000000000E-02   1.2060921176138837E+02
   2.2278000000000003E-02   1.1794087428600008E+02
   2.2752000000000001E-02   1.1538380415158761E+02
   2.3226000000000000E-02   1.1293118899852239E+02
   2.3700000000000002E-02   1.1057676145600853E+02
   2.4174000000000001E-02   1.0831474571180495E+02
   2.4648000000000003E-02   1.0613981024697966E+02
   2.5122000000000002E-02   1.0404702592144668E+02
   2.5596000000000001E-02   1.0203182871666532E+02
   2.6070000000000003E-02   1.0008998654277239E+02
   2.6544000000000002E-02   9.8217569602093263E+01
   2.7018000000000000E-02   9.6410923872282950E+01
   2.7492000000000003E-02   9.4666647332590841E+01
   2.7966000000000001E-02   9.2981568607793363E+01
   2.8440000000000000E-02   9.1352727747733312E+01
   2.8914000000000002E-02   8.9777358897396326E+01
   2.9388000000000001E-02   8.8252874644076826E+01
   2.9862000000000003E-02   8.6776851855289834E+01
   3.0336000000000002E-02   8.5347018844378823E+01
   3.0810000000000001E-02   8.3961243720836521E+01
   3.1283999999999999E-02   8.2617523799687461E+01
   3.1758000000000002E-02   8.1313975959284122E+01
   3.2232000000000004E-02   8.0048827849885754E+01
   3.2705999999999999E-02   7.8820409866708474E+01
   3.3180000000000001E-02   7.7627147810999787E+01
   3.3654000000000003E-02   7.6467556171303983E+01
   3.4128000000000006E-02   7.5340231964621992E+01
   3.4602000000000001E-02   7.4243849083777391E+01
   3.5076000000000003E-02   7.3177153103103890E+01
   3.5550000000000005E-02   7.2138956499678130E+01
   3.6024000000000000E-02   7.1128134251823326E+01
   3.6498000000000003E-02   7.0143619780586661E+01
   3.6972000000000005E-02   6.9184401203410900E+01
   3.7446000000000000E-02   6.8249517872337179E+01
   3.7920000000000002E-02   6.7338057171842379E+01
   3.8394000000000005E-02   6.6449151553874202E+01
   3.8868000000000000E-02   6.5581975789834416E+01
   3.9342000000000002E-02   6.4735744421214221E+01
   3.9816000000000004E-02   6.3909709392326931E+01
   4.0289999999999999E-02   6.3103157850142019E+01
   4.0764000000000002E-02   6.2315410097618937E+01
   4.1238000000000004E-02   6.1545817688190454E+01
   4.1711999999999999E-02   6.0793761650167617E+01
   4.2186000000000001E-02   6.0058650830847540E+01
   4.2660000000000003E-02   5.9339920351014328E+01
   4.3134000000000006E-02   5.8637030161340718E+01
   4.3608000000000001E-02   5.7949463692937641E+01
   4.4082000000000003E-02   5.7276726594965027E+01
   4.4556000000000005E-02   5.6618345552820692E+01
   4.5030000000000001E-02   5.5973867180969854E+01
   4.5504000000000003E-02   5.5342856984972890E+01
   4.5978000000000005E-02   5.4724898387717445E+01
   4.6452000000000000E-02   5.4119591815269160E+01
   4.6926000000000002E-02   5.3526553838125174E+01
   4.7400000000000005E-02   5.2945416363992614E+01
   4.7874000000000000E-02   5.2375825878520686E+01
   4.8348000000000002E-02   5.1817442730695667E+01
   4.8822000000000004E-02   5.1269940459863356E+01
   4.9296000000000006E-02   5.0733005161577168E+01
   4.9770000000000002E-02   5.0206334889683433E+01
   5.0244000000000004E-02   4.9689639092250900E+01
   5.0718000000000006E-02   4.9182638079130548E+01
   5.1192000000000001E-02   4.8685062519095176E+01
   5.1666000000000004E-02   4.8196652964659464E+01
   5.2140000000000006E-02   4.7717159402819036E+01
   5.2614000000000001E-02   4.7246340830073748E+01
   5.3088000000000003E-02   4.6783964850217700E+01
   5.3562000000000005E-02   4.6329807293485430E+01
   5.4036000000000001E-02   4.5883651855743182E+01
   5.4510000000000003E-02   4.5445289756504813E+01
   5.4984000000000005E-02   4.5014519414636680E+01
   5.5458000000000000E-02   4.4591146140692928E+01
   5.5932000000000003E-02   4.4174981844894852E+01
   5.6406000000000005E-02   4.3765844759833882E+01
   5.6880000000000000E-02   4.3363559177039548E+01
   5.7354000000000002E-02   4.2967955196610014E+01
   5.7828000000000004E-02   4.2578868489156051E+01
   5.8302000000000007E-02   4.2196140069357391E+01
   5.8776000000000002E-02   4.1819616080476038E+01
   5.9250000000000004E-02   4.1449147589212956E+01
   5.9724000000000006E-02   4.1084590390333517E+01
   6.0198000000000002E-02   4.0725804820523187E+01
   6.0672000000000004E-02   4.0372655580968768E+01
   6.1146000000000006E-02   4.0025011568191637E+01
   6.1620000000000001E-02   3.9682745712688721E+01
   6.2094000000000003E-02   3.9345734824963969E+01
   6.2567999999999999E-02   3.9013859448558314E+01
   6.3042000000000001E-02   3.8687003719709956E+01
   6.3516000000000003E-02   3.8365055233298484E+01
   6.3990000000000005E-02   3.8047904914747015E+01
   6.4464000000000007E-02   3.7735446897575677E+01
   6.4938000000000010E-02   3.7427578406317849E+01
   6.5411999999999998E-02   3.7124199644526847E+01
   6.5886000000000000E-02   3.6825213687616909E+01
   6.6360000000000002E-02   3.6530526380296756E+01
   6.6834000000000005E-02   3.6240046238367633E+01
   6.7308000000000007E-02   3.5953684354670692E+01
   6.7782000000000009E-02   3.5671354308980753E+01
   6.8256000000000011E-02   3.5392972081654371E+01
   6.8729999999999999E-02   3.5118455970851166E+01
   6.9204000000000002E-02   3.4847726513156971E+01
   6.9678000000000004E-02   3.4580706407446883E+01
   7.0152000000000006E-02   3.4317320441834923E+01
   7.0626000000000008E-02   3.4057495423565349E+01
   7.1100000000000010E-02   3.3801160111708271E+01
   7.1573999999999999E-02   3.3548245152529660E+01
   7.2048000000000001E-02   3.3298683017412500E+01
   7.2522000000000003E-02   3.3052407943212465E+01
   7.2996000000000005E-02   3.2809355874937324E+01
   7.3470000000000008E-02   3.2569464410645224E+01
   7.3944000000000010E-02   3.2332672748462393E+01
   7.4417999999999998E-02   3.2098921635625402E+01
   7.4892000000000000E-02   3.1868153319458763E+01
   7.5366000000000002E-02   3.1640311500202319E+01
   7.5840000000000005E-02   3.1415341285607628E+01
   7.6314000000000007E-02   3.1193189147226370E+01
   7.6788000000000009E-02   3.0973802878317777E+01
   7.7262000000000011E-02   3.0757131553305413E+01
   7.7736000000000000E-02   3.0543125488717301E+01
   7.8210000000000002E-02   3.0331736205546338E+01
   7.8684000000000004E-02   3.0122916392971248E+01
   7.9158000000000006E-02   2.9916619873380949E+01
   7.9632000000000008E-02   2.9712801568648022E+01
   8.0106000000000011E-02   2.9511417467599603E+01
   8.0579999999999999E-02   2.9312424594636351E+01
   8.1054000000000001E-02   2.9115780979452513E+01
   8.1528000000000003E-02   2.8921445627812254E+01
   8.2002000000000005E-02   2.8729378493339528E+01
   8.2476000000000008E-02   2.8539540450280725E+01
   8.2950000000000010E-02   2.8351893267201145E+01
   8.3423999999999998E-02   2.8166399581578197E+01
   8.3898000000000000E-02   2.7983022875255848E+01
   8.4372000000000003E-02   2.7801727450726467E+01
   8.4846000000000005E-02   2.7622478408207641E+01
   8.5320000000000007E-02   2.7445241623483152E+01
   8.5794000000000009E-02   2.7269983726478461E+01
   8.6268000000000011E-02   2.7096672080542536E+01
   8.6742000000000000E-02   2.6925274762408943E+01
   8.7216000000000002E-02   2.6755760542810375E+01
   8.7690000000000004E-02   2.6588098867721889E+01
   8.8164000000000006E-02   2.6422259840209264E+01
   8.8638000000000008E-02   2.6258214202859680E+01
   8.9112000000000011E-02   2.6095933320773149E+01
   8.9585999999999999E-02   2.5935389165093962E+01
   9.0060000000000001E-02   2.5776554297062066E+01
   9.0534000000000003E-02   2.5619401852565588E+01
   9.1008000000000006E-02   2.5463905527175996E+01
   9.1482000000000008E-02   2.5310039561648519E+01
   9.1956000000000010E-02   2.5157778727871019E+01
   9.2430000000000012E-02   2.5007098315245173E+01
   9.2904000000000000E-02   2.4857974117484606E+01
   9.3378000000000003E-02   2.4710382419815044E+01
   9.3852000000000005E-02   2.4564299986562425E+01
   9.4326000000000007E-02   2.4419704049115158E+01
   9.4800000000000009E-02   2.4276572294247572E+01
   9.5274000000000011E-02   2.4134882852791890E+01
   9.5748000000000000E-02   2.3994614288646666E+01
   9.6222000000000002E-02   2.3855745588110146E+01
   9.6696000000000004E-02   2.3718256149527303E+01
   9.7170000000000006E-02   2.3582125773239916E+01
   9.7644000000000009E-02   2.3447334651829340E+01
   9.8118000000000011E-02   2.3313863360642124E+01
   9.8592000000000013E-02   2.3181692848588909E+01
   9.9066000000000001E-02   2.3050804429207478E+01
   9.9540000000000003E-02   2.2921179771981123E+01
   1.0001400000000001E-01   2.2792800893903951E+01
   1.0048800000000001E-01   2.2665650151284819E+01
   1.0096200000000001E-01   2.2539710231782230E+01
   1.0143600000000001E-01   2.2414964146662463E+01
   1.0191000000000000E-01   2.2291395223273842E+01
   1.0238400000000000E-01   2.2168987097729961E+01
   1.0285800000000000E-01   2.2047723707795335E+01
   1.0333200000000001E-01   2.1927589285966722E+01
   1.0380600000000001E-01   2.1808568352744111E+01
   1.0428000000000001E-01   2.1690645710085164E+01
   1.0475400000000000E-01   2.1573806435037387E+01
   1.0522800000000000E-01   2.1458035873542400E+01
   1.0570200000000000E-01   2.1343319634406928E+01
   1.0617600000000001E-01   2.1229643583435241E+01
   1.0665000000000001E-01   2.1116993837718098E+01
   1.0712400000000001E-01   2.1005356760073312E+01
   1.0759800000000001E-01   2.0894718953633227E+01
   1.0807200000000000E-01   2.0785067256574681E+01
   1.0854600000000000E-01   2.0676388736986979E+01
   1.0902000000000001E-01   2.0568670687873833E+01
   1.0949400000000001E-01   2.0461900622285047E+01
   1.0996800000000001E-01   2.0356066268574136E+01
   1.1044200000000001E-01   2.0251155565778067E+01
   1.1091600000000000E-01   2.0147156659115474E+01
   1.1139000000000000E-01   2.0044057895599796E+01
   1.1186400000000001E-01   1.9941847819763954E+01
   1.1233800000000001E-01   1.9840515169493266E+01
   1.1281200000000001E-01   1.9740048871963410E+01
   1.1328600000000001E-01   1.9640438039680365E+01
   1.1376000000000000E-01   1.9541671966619361E+01
   1.1423400000000000E-01   1.9443740124459943E+01
   1.1470800000000000E-01   1.9346632158914367E+01
   1.1518200000000001E-01   1.9250337886146710E+01
   1.1565600000000001E-01   1.9154847289279942E+01
   1.1613000000000001E-01   1.9060150514988653E+01
   1.1660400000000001E-01   1.8966237870174780E+01
   1.1707800000000000E-01   1.8873099818724139E+01
   1.1755200000000000E-01   1.8780726978341431E+01
   1.1802600000000001E-01   1.8689110117461475E+01
   1.1850000000000001E-01   1.8598240152234631E+01
   1.1897400000000001E-01   1.8508108143584224E+01
   1.1944800000000001E-01   1.8418705294334060E+01
   1.1992200000000000E-01   1.8330022946404071E+01
   1.2039600000000000E-01   1.8242052578072176E+01
   1.2087000000000001E-01   1.8154785801300605E+01
   1.2134400000000001E-01   1.8068214359124855E+01
   1.2181800000000001E-01   1.7982330123103619E+01
   1.2229200000000001E-01   1.7897125090828027E+01
   1.2276600000000001E-01   1.7812591383488567E+01
   1.2324000000000000E-01   1.7728721243498168E+01
   1.2371400000000000E-01   1.7645507032169931E+01
   1.2418800000000001E-01   1.7562941227448029E+01
   1.2466200000000001E-01   1.7481016421690370E+01
   1.2513600000000000E-01   1.7399725319501677E+01
   1.2561000000000000E-01   1.7319060735615583E+01
   1.2608400000000000E-01   1.7239015592824583E+01
   1.2655800000000000E-01   1.7159582919956403E+01
   1.2703200000000001E-01   1.7080755849895745E+01
   1.2750600000000001E-01   1.7002527617650134E+01
   1.2798000000000001E-01   1.6924891558458736E+01
   1.2845400000000001E-01   1.6847841105943065E+01
   1.2892800000000001E-01   1.6771369790298486E+01
   1.2940200000000002E-01   1.6695471236525425E+01
   1.2987600000000002E-01   1.6620139162699378E+01
   1.3035000000000002E-01   1.6545367378278602E+01
   1.3082400000000000E-01   1.6471149782448631E+01
   1.3129800000000000E-01   1.6397480362502638E+01
   1.3177200000000000E-01   1.6324353192256773E+01
   1.3224600000000000E-01   1.6251762430499554E+01
   1.3272000000000000E-01   1.6179702319474480E+01
   1.3319400000000001E-01   1.6108167183395079E+01
   1.3366800000000001E-01   1.6037151426991532E+01
   1.3414200000000001E-01   1.5966649534088097E+01
   1.3461600000000001E-01   1.5896656066210605E+01
   1.3509000000000002E-01   1.5827165661223267E+01
   1.3556400000000002E-01   1.5758173031994085E+01
   1.3603800000000002E-01   1.5689672965088141E+01
   1.3651200000000002E-01   1.5621660319488155E+01
   1.3698600000000000E-01   1.5554130025341543E+01
   1.3746000000000000E-01   1.5487077082733457E+01
   1.3793400000000000E-01   1.5420496560485088E+01
   1.3840800000000000E-01   1.5354383594976673E+01
   1.3888200000000001E-01   1.5288733388994608E+01
   1.3935600000000001E-01   1.5223541210602074E+01
   1.3983000000000001E-01   1.5158802392032646E+01
   1.4030400000000001E-01   1.5094512328606340E+01
   1.4077800000000001E-01   1.5030666477667531E+01
   1.4125200000000002E-01   1.4967260357544253E+01
   1.4172600000000002E-01   1.4904289546528441E+01
   1.4220000000000002E-01   1.4841749681876481E+01
   1.4267400000000000E-01   1.4779636458829767E+01
   1.4314800000000000E-01   1.4717945629654633E+01
   1.4362200000000000E-01   1.4656673002701380E+01
   1.4409600000000000E-01   1.4595814441481812E+01
   1.4457000000000000E-01   1.4535365863764946E+01
   1.4504400000000001E-01   1.4475323240690466E+01
   1.4551800000000001E-01   1.4415682595899460E+01
   1.4599200000000001E-01   1.4356440004682129E+01
   1.4646600000000001E-01   1.4297591593142048E+01
   1.4694000000000002E-01   1.4239133537376560E+01
   1.4741400000000002E-01   1.4181062062673039E+01
   1.4788800000000002E-01   1.4123373442720560E+01
   1.4836200000000002E-01   1.4066063998836718E+01
   1.4883600000000000E-01   1.4009130099209198E+01
   1.4931000000000000E-01   1.3952568158151790E+01
   1.4978400000000000E-01   1.3896374635374547E+01
   1.5025800000000000E-01   1.3840546035267767E+01
   1.5073200000000000E-01   1.3785078906199427E+01
   1.5120600000000001E-01   1.3729969839825907E+01
   1.5168000000000001E-01   1.3675215470415580E+01
   1.5215400000000001E-01   1.3620812474185085E+01
   1.5262800000000001E-01   1.3566757568647926E+01
   1.5310200000000002E-01   1.3513047511975222E+01
   1.5357600000000002E-01   1.3459679102368243E+01
   1.5405000000000002E-01   1.3406649177442578E+01
   1.5452400000000002E-01   1.3353954613623593E+01
   1.5499800000000000E-01   1.3301592325553024E+01
   1.5547200000000000E-01   1.3249559265506385E+01
   1.5594600000000000E-01   1.3197852422821029E+01
   1.5642000000000000E-01   1.3146468823334599E+01
   1.5689400000000001E-01   1.3095405528833655E+01
   1.5736800000000001E-01   1.3044659636512273E+01
   1.5784200000000001E-01   1.2994228278440385E+01
   1.5831600000000001E-01   1.2944108621041682E+01
   1.5879000000000001E-01   1.2894297864580883E+01
   1.5926400000000002E-01   1.2844793242660103E+01
   1.5973800000000002E-01   1.2795592021724273E+01
   1.6021200000000002E-01   1.2746691500575261E+01
   1.6068600000000002E-01   1.2698089009894630E+01
   1.6116000000000000E-01   1.2649781911774822E+01
   1.6163400000000000E-01   1.2601767599258581E+01
   1.6210800000000000E-01   1.2554043495886440E+01
   1.6258200000000000E-01   1.2506607055252166E+01
   1.6305600000000001E-01   1.2459455760565920E+01
   1.6353000000000001E-01   1.2412587124225022E+01
   1.6400400000000001E-01   1.2365998687392182E+01
   1.6447800000000001E-01   1.2319688019580990E+01
   1.6495200000000002E-01   1.2273652718248577E+01
   1.6542600000000002E-01   1.2227890408395282E+01
   1.6590000000000002E-01   1.2182398742171150E+01
   1.6637400000000002E-01   1.2137175398489195E+01
   1.6684800000000000E-01   1.2092218082645234E+01
   1.6732200000000000E-01   1.2047524525944185E+01
   1.6779600000000000E-01   1.2003092485332699E+01
   1.6827000000000000E-01   1.1958919743038015E+01
   1.6874400000000001E-01   1.1915004106212868E+01
   1.6921800000000001E-01   1.1871343406586410E+01
   1.6969200000000001E-01   1.1827935500120944E+01
   1.7016600000000001E-01   1.1784778266674415E+01
   1.7064000000000001E-01   1.1741869609668514E+01
   1.7111400000000002E-01   1.1699207455762309E+01
   1.7158800000000002E-01   1.1656789754531289E+01
   1.7206200000000002E-01   1.1614614478151681E+01
   1.7253600000000002E-01   1.1572679621090034E+01
   1.7301000000000000E-01   1.1530983199797818E+01
   1.7348400000000000E-01   1.1489523252411120E+01
   1.7395800000000000E-01   1.1448297838455183E+01
   1.7443200000000000E-01   1.1407305038553799E+01
   1.7490600000000001E-01   1.1366542954143409E+01
   1.7538000000000001E-01   1.1326009707191847E+01
   1.7585400000000001E-01   1.1285703439921635E+01
   1.7632800000000001E-01   1.1245622314537725E+01
   1.7680200000000001E-01   1.1205764512959652E+01
   1.7727600000000002E-01   1.1166128236557944E+01
   1.7775000000000002E-01   1.1126711705894788E+01
   1.7822400000000002E-01   1.1087513160468799E+01
   1.7869800000000002E-01   1.1048530858463886E+01
   1.7917200000000000E-01   1.1009763076502077E+01
   1.7964600000000000E-01   1.0971208109400258E+01
   1.8012000000000000E-01   1.0932864269930784E+01
   1.8059400000000000E-01   1.0894729888585815E+01
   1.8106800000000001E-01   1.0856803313345395E+01
   1.8154200000000001E-01   1.0819082909449129E+01
   1.8201600000000001E-01   1.0781567059171456E+01
   1.8249000000000001E-01   1.0744254161600402E+01
   1.8296400000000002E-01   1.0707142632419794E+01
   1.8343800000000002E-01   1.0670230903694831E+01
   1.8391200000000002E-01   1.0633517423660974E+01
   1.8438600000000002E-01   1.0597000656516112E+01
