# ADP potential Al-H 
# Embedding energy of H
#   Electron density   Energy (eV)
    0.1668658621E-02   -0.1365658177E-02
    0.3337317243E-02   -0.2774135567E-02
    0.5005975864E-02   -0.4237555237E-02
    0.6674634485E-02   -0.5768755891E-02
    0.8343293107E-02   -0.7384424148E-02
    0.1001195173E-01   -0.9105363580E-02
    0.1168061035E-01   -0.1095663333E-01
    0.1334926897E-01   -0.1296761877E-01
    0.1501792759E-01   -0.1517205492E-01
    0.1668658621E-01   -0.1760801044E-01
    0.1835524483E-01   -0.2031783307E-01
    0.2002390346E-01   -0.2334805417E-01
    0.2169256208E-01   -0.2674924874E-01
    0.2336122070E-01   -0.3057584637E-01
    0.2502987932E-01   -0.3488588731E-01
    0.2669853794E-01   -0.3974071793E-01
    0.2836719656E-01   -0.4520461963E-01
    0.3003585518E-01   -0.5134436631E-01
    0.3170451381E-01   -0.5822870607E-01
    0.3337317243E-01   -0.6592776328E-01
    0.3504183105E-01   -0.7451235928E-01
    0.3671048967E-01   -0.8405325390E-01
    0.3837914829E-01   -0.9462030768E-01
    0.4004780691E-01   -0.1062815730E+00
    0.4171646553E-01   -0.1191023220E+00
    0.4338512415E-01   -0.1331440235E+00
    0.4505378278E-01   -0.1484632839E+00
    0.4672244140E-01   -0.1651107748E+00
    0.4839110002E-01   -0.1831301669E+00
    0.5005975864E-01   -0.2025570890E+00
    0.5172841726E-01   -0.2234181598E+00
    0.5339707588E-01   -0.2457300941E+00
    0.5506573450E-01   -0.2694989371E+00
    0.5673439313E-01   -0.2947194352E+00
    0.5840305175E-01   -0.3213745815E+00
    0.6007171037E-01   -0.3494353550E+00
    0.6174036899E-01   -0.3788606641E+00
    0.6340902761E-01   -0.4095975162E+00
    0.6507768623E-01   -0.4415814058E+00
    0.6674634485E-01   -0.4747369294E+00
    0.6841500348E-01   -0.5089786081E+00
    0.7008366210E-01   -0.5442118963E+00
    0.7175232072E-01   -0.5803343704E+00
    0.7342097934E-01   -0.6172370403E+00
    0.7508963796E-01   -0.6548057687E+00
    0.7675829658E-01   -0.6929227563E+00
    0.7842695520E-01   -0.7314680502E+00
    0.8009561382E-01   -0.7703210321E+00
    0.8176427245E-01   -0.8093618746E+00
    0.8343293107E-01   -0.8484728971E+00
    0.8510158969E-01   -0.8875398257E+00
    0.8677024831E-01   -0.9264529162E+00
    0.8843890693E-01   -0.9651079300E+00
    0.9010756555E-01   -0.1003406949E+01
    0.9177622417E-01   -0.1041259029E+01
    0.9344488280E-01   -0.1078580695E+01
    0.9511354142E-01   -0.1115296243E+01
    0.9678220004E-01   -0.1151337984E+01
    0.9845085866E-01   -0.1186646216E+01
    0.1001195173E+00   -0.1221169181E+01
    0.1017881759E+00   -0.1254862893E+01
    0.1034568345E+00   -0.1287690824E+01
    0.1051254931E+00   -0.1319623582E+01
    0.1067941518E+00   -0.1350638518E+01
    0.1084628104E+00   -0.1380719237E+01
    0.1101314690E+00   -0.1409855147E+01
    0.1118001276E+00   -0.1438040937E+01
    0.1134687863E+00   -0.1465276149E+01
    0.1151374449E+00   -0.1491564578E+01
    0.1168061035E+00   -0.1516913869E+01
    0.1184747621E+00   -0.1541335023E+01
    0.1201434207E+00   -0.1564841961E+01
    0.1218120794E+00   -0.1587451082E+01
    0.1234807380E+00   -0.1609180908E+01
    0.1251493966E+00   -0.1630051702E+01
    0.1268180552E+00   -0.1650085138E+01
    0.1284867138E+00   -0.1669304026E+01
    0.1301553725E+00   -0.1687732009E+01
    0.1318240311E+00   -0.1705393339E+01
    0.1334926897E+00   -0.1722312656E+01
    0.1351613483E+00   -0.1738514818E+01
    0.1368300070E+00   -0.1754024707E+01
    0.1384986656E+00   -0.1768867114E+01
    0.1401673242E+00   -0.1783066599E+01
    0.1418359828E+00   -0.1796647379E+01
    0.1435046414E+00   -0.1809633279E+01
    0.1451733001E+00   -0.1822047622E+01
    0.1468419587E+00   -0.1833913174E+01
    0.1485106173E+00   -0.1845252133E+01
    0.1501792759E+00   -0.1856086027E+01
    0.1518479345E+00   -0.1866435775E+01
    0.1535165932E+00   -0.1876321578E+01
    0.1551852518E+00   -0.1885762970E+01
    0.1568539104E+00   -0.1894778792E+01
    0.1585225690E+00   -0.1903387191E+01
    0.1601912276E+00   -0.1911605616E+01
    0.1618598863E+00   -0.1919450836E+01
    0.1635285449E+00   -0.1926938957E+01
    0.1651972035E+00   -0.1934085415E+01
    0.1668658621E+00   -0.1940905002E+01
    0.1685345208E+00   -0.1947411882E+01
    0.1702031794E+00   -0.1953619630E+01
    0.1718718380E+00   -0.1959541200E+01
    0.1735404966E+00   -0.1965188983E+01
    0.1752091552E+00   -0.1970574843E+01
    0.1768778139E+00   -0.1975710079E+01
    0.1785464725E+00   -0.1980605490E+01
    0.1802151311E+00   -0.1985271403E+01
    0.1818837897E+00   -0.1989717645E+01
    0.1835524483E+00   -0.1993953606E+01
    0.1852211070E+00   -0.1997988240E+01
    0.1868897656E+00   -0.2001830093E+01
    0.1885584242E+00   -0.2005487310E+01
    0.1902270828E+00   -0.2008967646E+01
    0.1918957415E+00   -0.2012278521E+01
    0.1935644001E+00   -0.2015426995E+01
    0.1952330587E+00   -0.2018419795E+01
    0.1969017173E+00   -0.2021263334E+01
    0.1985703759E+00   -0.2023963756E+01
    0.2002390346E+00   -0.2026526869E+01
    0.2019076932E+00   -0.2028958266E+01
    0.2035763518E+00   -0.2031263228E+01
    0.2052450104E+00   -0.2033446840E+01
    0.2069136690E+00   -0.2035513919E+01
    0.2085823277E+00   -0.2037469074E+01
    0.2102509863E+00   -0.2039316705E+01
    0.2119196449E+00   -0.2041060999E+01
    0.2135883035E+00   -0.2042705949E+01
    0.2152569622E+00   -0.2044255395E+01
    0.2169256208E+00   -0.2045712978E+01
    0.2185942794E+00   -0.2047082165E+01
    0.2202629380E+00   -0.2048366300E+01
    0.2219315966E+00   -0.2049568547E+01
    0.2236002553E+00   -0.2050691948E+01
    0.2252689139E+00   -0.2051739391E+01
    0.2269375725E+00   -0.2052713655E+01
    0.2286062311E+00   -0.2053617388E+01
    0.2302748897E+00   -0.2054453119E+01
    0.2319435484E+00   -0.2055223269E+01
    0.2336122070E+00   -0.2055930158E+01
    0.2352808656E+00   -0.2056575997E+01
    0.2369495242E+00   -0.2057162919E+01
    0.2386181829E+00   -0.2057692930E+01
    0.2402868415E+00   -0.2058167987E+01
    0.2419555001E+00   -0.2058589955E+01
    0.2436241587E+00   -0.2058960606E+01
    0.2452928173E+00   -0.2059281651E+01
    0.2469614760E+00   -0.2059554731E+01
    0.2486301346E+00   -0.2059781406E+01
    0.2502987932E+00   -0.2059963173E+01
    0.2519674518E+00   -0.2060101493E+01
    0.2536361104E+00   -0.2060197732E+01
    0.2553047691E+00   -0.2060253222E+01
    0.2569734277E+00   -0.2060269230E+01
    0.2586420863E+00   -0.2060246980E+01
    0.2603107449E+00   -0.2060187654E+01
    0.2619794036E+00   -0.2060092370E+01
    0.2636480622E+00   -0.2059962213E+01
    0.2653167208E+00   -0.2059798211E+01
    0.2669853794E+00   -0.2059601379E+01
    0.2686540380E+00   -0.2059372671E+01
    0.2703226967E+00   -0.2059113004E+01
    0.2719913553E+00   -0.2058823268E+01
    0.2736600139E+00   -0.2058504321E+01
    0.2753286725E+00   -0.2058156989E+01
    0.2769973311E+00   -0.2057782052E+01
    0.2786659898E+00   -0.2057380269E+01
    0.2803346484E+00   -0.2056952385E+01
    0.2820033070E+00   -0.2056499094E+01
    0.2836719656E+00   -0.2056021091E+01
    0.2853406243E+00   -0.2055519013E+01
    0.2870092829E+00   -0.2054993508E+01
    0.2886779415E+00   -0.2054445172E+01
    0.2903466001E+00   -0.2053874602E+01
    0.2920152587E+00   -0.2053282349E+01
    0.2936839174E+00   -0.2052668975E+01
    0.2953525760E+00   -0.2052035003E+01
    0.2970212346E+00   -0.2051380941E+01
    0.2986898932E+00   -0.2050707270E+01
    0.3003585518E+00   -0.2050014474E+01
    0.3020272105E+00   -0.2049303012E+01
    0.3036958691E+00   -0.2048573333E+01
    0.3053645277E+00   -0.2047825838E+01
    0.3070331863E+00   -0.2047060972E+01
    0.3087018449E+00   -0.2046279116E+01
    0.3103705036E+00   -0.2045480650E+01
    0.3120391622E+00   -0.2044665965E+01
    0.3137078208E+00   -0.2043835414E+01
    0.3153764794E+00   -0.2042989353E+01
    0.3170451381E+00   -0.2042128104E+01
    0.3187137967E+00   -0.2041252012E+01
    0.3203824553E+00   -0.2040361390E+01
    0.3220511139E+00   -0.2039456539E+01
    0.3237197725E+00   -0.2038537757E+01
    0.3253884312E+00   -0.2037605343E+01
    0.3270570898E+00   -0.2036659566E+01
    0.3287257484E+00   -0.2035700700E+01
    0.3303944070E+00   -0.2034729005E+01
    0.3320630656E+00   -0.2033744738E+01
    0.3337317243E+00   -0.2032748147E+01
    0.3354003829E+00   -0.2031739474E+01
    0.3370690415E+00   -0.2030718944E+01
    0.3387377001E+00   -0.2029686789E+01
    0.3404063588E+00   -0.2028643228E+01
    0.3420750174E+00   -0.2027588466E+01
    0.3437436760E+00   -0.2026522717E+01
    0.3454123346E+00   -0.2025446190E+01
    0.3470809932E+00   -0.2024359055E+01
    0.3487496519E+00   -0.2023261529E+01
    0.3504183105E+00   -0.2022153780E+01
    0.3520869691E+00   -0.2021035993E+01
    0.3537556277E+00   -0.2019908336E+01
    0.3554242863E+00   -0.2018770991E+01
    0.3570929450E+00   -0.2017624104E+01
    0.3587616036E+00   -0.2016467853E+01
    0.3604302622E+00   -0.2015302381E+01
    0.3620989208E+00   -0.2014127846E+01
    0.3637675795E+00   -0.2012944405E+01
    0.3654362381E+00   -0.2011752186E+01
    0.3671048967E+00   -0.2010551335E+01
    0.3687735553E+00   -0.2009341992E+01
    0.3704422139E+00   -0.2008124287E+01
    0.3721108726E+00   -0.2006898351E+01
    0.3737795312E+00   -0.2005664302E+01
    0.3754481898E+00   -0.2004422283E+01
    0.3771168484E+00   -0.2003172400E+01
    0.3787855070E+00   -0.2001914762E+01
    0.3804541657E+00   -0.2000649503E+01
    0.3821228243E+00   -0.1999376723E+01
    0.3837914829E+00   -0.1998096531E+01
    0.3854601415E+00   -0.1996809040E+01
    0.3871288002E+00   -0.1995514343E+01
    0.3887974588E+00   -0.1994212552E+01
    0.3904661174E+00   -0.1992903764E+01
    0.3921347760E+00   -0.1991588059E+01
    0.3938034346E+00   -0.1990265556E+01
    0.3954720933E+00   -0.1988936331E+01
    0.3971407519E+00   -0.1987600481E+01
    0.3988094105E+00   -0.1986258091E+01
    0.4004780691E+00   -0.1984909247E+01
    0.4021467277E+00   -0.1983554038E+01
    0.4038153864E+00   -0.1982192533E+01
    0.4054840450E+00   -0.1980824829E+01
    0.4071527036E+00   -0.1979450998E+01
    0.4088213622E+00   -0.1978071116E+01
    0.4104900209E+00   -0.1976685251E+01
    0.4121586795E+00   -0.1975293486E+01
    0.4138273381E+00   -0.1973895896E+01
    0.4154959967E+00   -0.1972492541E+01
    0.4171646553E+00   -0.1971083501E+01
    0.4188333140E+00   -0.1969668830E+01
    0.4205019726E+00   -0.1968248607E+01
    0.4221706312E+00   -0.1966822890E+01
    0.4238392898E+00   -0.1965391747E+01
    0.4255079484E+00   -0.1963955242E+01
    0.4271766071E+00   -0.1962513430E+01
    0.4288452657E+00   -0.1961066366E+01
    0.4305139243E+00   -0.1959614126E+01
    0.4321825829E+00   -0.1958156755E+01
    0.4338512415E+00   -0.1956694303E+01
    0.4355199002E+00   -0.1955226846E+01
    0.4371885588E+00   -0.1953754419E+01
    0.4388572174E+00   -0.1952277081E+01
    0.4405258760E+00   -0.1950794887E+01
    0.4421945347E+00   -0.1949307887E+01
    0.4438631933E+00   -0.1947816138E+01
    0.4455318519E+00   -0.1946319675E+01
    0.4472005105E+00   -0.1944818554E+01
    0.4488691691E+00   -0.1943312827E+01
    0.4505378278E+00   -0.1941802527E+01
    0.4522064864E+00   -0.1940287722E+01
    0.4538751450E+00   -0.1938768431E+01
    0.4555438036E+00   -0.1937244716E+01
    0.4572124622E+00   -0.1935716626E+01
    0.4588811209E+00   -0.1934184178E+01
    0.4605497795E+00   -0.1932647441E+01
    0.4622184381E+00   -0.1931106432E+01
    0.4638870967E+00   -0.1929561217E+01
    0.4655557554E+00   -0.1928011816E+01
    0.4672244140E+00   -0.1926458277E+01
    0.4688930726E+00   -0.1924900628E+01
    0.4705617312E+00   -0.1923338929E+01
    0.4722303898E+00   -0.1921773197E+01
    0.4738990485E+00   -0.1920203478E+01
    0.4755677071E+00   -0.1918629803E+01
    0.4772363657E+00   -0.1917052208E+01
    0.4789050243E+00   -0.1915470740E+01
    0.4805736829E+00   -0.1913885413E+01
    0.4822423416E+00   -0.1912296278E+01
    0.4839110002E+00   -0.1910703354E+01
    0.4855796588E+00   -0.1909106686E+01
    0.4872483174E+00   -0.1907506296E+01
    0.4889169761E+00   -0.1905902222E+01
    0.4905856347E+00   -0.1904294496E+01
    0.4922542933E+00   -0.1902683147E+01
    0.4939229519E+00   -0.1901068210E+01
    0.4955916105E+00   -0.1899449705E+01
    0.4972602692E+00   -0.1897827667E+01
    0.4989289278E+00   -0.1896202125E+01
    0.5005975864E+00   -0.1894573109E+01
    0.5022662450E+00   -0.1892940642E+01
    0.5039349036E+00   -0.1891304751E+01
    0.5056035623E+00   -0.1889665480E+01
    0.5072722209E+00   -0.1888022832E+01
    0.5089408795E+00   -0.1886376851E+01
    0.5106095381E+00   -0.1884727553E+01
    0.5122781968E+00   -0.1883074970E+01
    0.5139468554E+00   -0.1881419126E+01
    0.5156155140E+00   -0.1879760041E+01
    0.5172841726E+00   -0.1878097754E+01
    0.5189528312E+00   -0.1876432264E+01
    0.5206214899E+00   -0.1874763628E+01
    0.5222901485E+00   -0.1873091839E+01
    0.5239588071E+00   -0.1871416939E+01
    0.5256274657E+00   -0.1869738954E+01
    0.5272961243E+00   -0.1868057892E+01
    0.5289647830E+00   -0.1866373774E+01
    0.5306334416E+00   -0.1864686644E+01
    0.5323021002E+00   -0.1862996505E+01
    0.5339707588E+00   -0.1861303381E+01
    0.5356394175E+00   -0.1859607305E+01
    0.5373080761E+00   -0.1857908282E+01
    0.5389767347E+00   -0.1856206344E+01
    0.5406453933E+00   -0.1854501508E+01
    0.5423140519E+00   -0.1852793790E+01
    0.5439827106E+00   -0.1851083220E+01
    0.5456513692E+00   -0.1849369816E+01
    0.5473200278E+00   -0.1847653584E+01
    0.5489886864E+00   -0.1845934558E+01
    0.5506573450E+00   -0.1844212760E+01
    0.5523260037E+00   -0.1842488188E+01
    0.5539946623E+00   -0.1840760881E+01
    0.5556633209E+00   -0.1839030851E+01
    0.5573319795E+00   -0.1837298116E+01
    0.5590006382E+00   -0.1835562688E+01
    0.5606692968E+00   -0.1833824596E+01
    0.5623379554E+00   -0.1832083851E+01
    0.5640066140E+00   -0.1830340471E+01
    0.5656752726E+00   -0.1828594472E+01
    0.5673439313E+00   -0.1826845870E+01
    0.5690125899E+00   -0.1825094691E+01
    0.5706812485E+00   -0.1823340944E+01
    0.5723499071E+00   -0.1821584645E+01
    0.5740185657E+00   -0.1819825810E+01
    0.5756872244E+00   -0.1818064455E+01
    0.5773558830E+00   -0.1816300603E+01
    0.5790245416E+00   -0.1814534262E+01
    0.5806932002E+00   -0.1812765444E+01
    0.5823618588E+00   -0.1810994175E+01
    0.5840305175E+00   -0.1809220463E+01
    0.5856991761E+00   -0.1807444329E+01
    0.5873678347E+00   -0.1805665780E+01
    0.5890364933E+00   -0.1803884837E+01
    0.5907051520E+00   -0.1802101510E+01
    0.5923738106E+00   -0.1800315814E+01
    0.5940424692E+00   -0.1798527775E+01
    0.5957111278E+00   -0.1796737391E+01
    0.5973797864E+00   -0.1794944682E+01
    0.5990484451E+00   -0.1793149655E+01
    0.6007171037E+00   -0.1791352339E+01
    0.6023857623E+00   -0.1789552734E+01
    0.6040544209E+00   -0.1787750865E+01
    0.6057230795E+00   -0.1785946728E+01
    0.6073917382E+00   -0.1784140351E+01
    0.6090603968E+00   -0.1782331745E+01
    0.6107290554E+00   -0.1780520919E+01
    0.6123977140E+00   -0.1778707888E+01
    0.6140663727E+00   -0.1776892662E+01
    0.6157350313E+00   -0.1775075263E+01
    0.6174036899E+00   -0.1773255683E+01
    0.6190723485E+00   -0.1771433953E+01
    0.6207410071E+00   -0.1769610086E+01
    0.6224096658E+00   -0.1767784075E+01
    0.6240783244E+00   -0.1765955948E+01
    0.6257469830E+00   -0.1764125720E+01
    0.6274156416E+00   -0.1762293381E+01
    0.6290843002E+00   -0.1760458971E+01
    0.6307529589E+00   -0.1758622479E+01
    0.6324216175E+00   -0.1756783928E+01
    0.6340902761E+00   -0.1754943316E+01
    0.6357589347E+00   -0.1753100675E+01
    0.6374275934E+00   -0.1751256004E+01
    0.6390962520E+00   -0.1749409313E+01
    0.6407649106E+00   -0.1747560610E+01
    0.6424335692E+00   -0.1745709919E+01
    0.6441022278E+00   -0.1743857240E+01
    0.6457708865E+00   -0.1742002582E+01
    0.6474395451E+00   -0.1740145954E+01
    0.6491082037E+00   -0.1738287385E+01
    0.6507768623E+00   -0.1736426864E+01
    0.6524455209E+00   -0.1734564404E+01
    0.6541141796E+00   -0.1732700028E+01
    0.6557828382E+00   -0.1730833729E+01
    0.6574514968E+00   -0.1728965537E+01
    0.6591201554E+00   -0.1727095441E+01
    0.6607888141E+00   -0.1725223467E+01
    0.6624574727E+00   -0.1723349612E+01
    0.6641261313E+00   -0.1721473897E+01
    0.6657947899E+00   -0.1719596316E+01
    0.6674634485E+00   -0.1717716899E+01
    0.6691321072E+00   -0.1715835641E+01
    0.6708007658E+00   -0.1713952549E+01
    0.6724694244E+00   -0.1712067647E+01
    0.6741380830E+00   -0.1710180927E+01
    0.6758067416E+00   -0.1708292409E+01
    0.6774754003E+00   -0.1706402102E+01
    0.6791440589E+00   -0.1704510010E+01
    0.6808127175E+00   -0.1702616139E+01
    0.6824813761E+00   -0.1700720502E+01
    0.6841500348E+00   -0.1698823120E+01
    0.6858186934E+00   -0.1696923976E+01
    0.6874873520E+00   -0.1695023101E+01
    0.6891560106E+00   -0.1693120486E+01
    0.6908246692E+00   -0.1691216154E+01
    0.6924933279E+00   -0.1689310105E+01
    0.6941619865E+00   -0.1687402350E+01
    0.6958306451E+00   -0.1685492897E+01
    0.6974993037E+00   -0.1683581747E+01
    0.6991679623E+00   -0.1681668924E+01
    0.7008366210E+00   -0.1679754417E+01
    0.7025052796E+00   -0.1677838251E+01
    0.7041739382E+00   -0.1675920421E+01
    0.7058425968E+00   -0.1674000946E+01
    0.7075112555E+00   -0.1672079821E+01
    0.7091799141E+00   -0.1670157071E+01
    0.7108485727E+00   -0.1668232682E+01
    0.7125172313E+00   -0.1666306675E+01
    0.7141858899E+00   -0.1664379056E+01
    0.7158545486E+00   -0.1662449829E+01
    0.7175232072E+00   -0.1660519011E+01
    0.7191918658E+00   -0.1658586595E+01
    0.7208605244E+00   -0.1656652599E+01
    0.7225291830E+00   -0.1654717029E+01
    0.7241978417E+00   -0.1652779884E+01
    0.7258665003E+00   -0.1650841179E+01
    0.7275351589E+00   -0.1648900919E+01
    0.7292038175E+00   -0.1646959105E+01
    0.7308724761E+00   -0.1645015758E+01
    0.7325411348E+00   -0.1643070879E+01
    0.7342097934E+00   -0.1641124467E+01
    0.7358784520E+00   -0.1639176531E+01
    0.7375471106E+00   -0.1637227089E+01
    0.7392157693E+00   -0.1635276137E+01
    0.7408844279E+00   -0.1633323677E+01
    0.7425530865E+00   -0.1631369740E+01
    0.7442217451E+00   -0.1629414303E+01
    0.7458904037E+00   -0.1627457380E+01
    0.7475590624E+00   -0.1625498995E+01
    0.7492277210E+00   -0.1623539137E+01
    0.7508963796E+00   -0.1621577817E+01
    0.7525650382E+00   -0.1619615043E+01
    0.7542336968E+00   -0.1617650814E+01
    0.7559023555E+00   -0.1615685147E+01
    0.7575710141E+00   -0.1613718045E+01
    0.7592396727E+00   -0.1611749510E+01
    0.7609083313E+00   -0.1609779557E+01
    0.7625769900E+00   -0.1607808176E+01
    0.7642456486E+00   -0.1605835389E+01
    0.7659143072E+00   -0.1603861194E+01
    0.7675829658E+00   -0.1601885598E+01
    0.7692516244E+00   -0.1599908608E+01
    0.7709202831E+00   -0.1597930228E+01
    0.7725889417E+00   -0.1595950467E+01
    0.7742576003E+00   -0.1593969328E+01
    0.7759262589E+00   -0.1591986817E+01
    0.7775949175E+00   -0.1590002942E+01
    0.7792635762E+00   -0.1588017707E+01
    0.7809322348E+00   -0.1586031116E+01
    0.7826008934E+00   -0.1584043178E+01
    0.7842695520E+00   -0.1582053896E+01
    0.7859382107E+00   -0.1580063276E+01
    0.7876068693E+00   -0.1578071324E+01
    0.7892755279E+00   -0.1576078046E+01
    0.7909441865E+00   -0.1574083446E+01
    0.7926128451E+00   -0.1572087529E+01
    0.7942815038E+00   -0.1570090303E+01
    0.7959501624E+00   -0.1568091770E+01
    0.7976188210E+00   -0.1566091938E+01
    0.7992874796E+00   -0.1564090812E+01
    0.8009561382E+00   -0.1562088395E+01
    0.8026247969E+00   -0.1560084693E+01
    0.8042934555E+00   -0.1558079713E+01
    0.8059621141E+00   -0.1556073458E+01
    0.8076307727E+00   -0.1554065934E+01
    0.8092994314E+00   -0.1552057145E+01
