# ADP potential for the Al-Cu system 
# Source: F. Apostol and Y. Mishin, Phys. Rev. B 83, 054116 (2011)
# Contact information: ymishin@gmu.edu
# Embedding energy of Al
#   Electron density   Energy (eV)
    0.7590167394E-02   -0.1031751728E+00
    0.1518033479E-01   -0.2021000666E+00
    0.2277050218E-01   -0.2968791416E+00
    0.3036066957E-01   -0.3876168576E+00
    0.3795083697E-01   -0.4744176746E+00
    0.4554100436E-01   -0.5573860527E+00
    0.5313117175E-01   -0.6366264519E+00
    0.6072133915E-01   -0.7122433320E+00
    0.6831150654E-01   -0.7843411532E+00
    0.7590167394E-01   -0.8530243753E+00
    0.8349184133E-01   -0.9183974585E+00
    0.9108200872E-01   -0.9805648623E+00
    0.9867217612E-01   -0.1039631048E+01
    0.1062623435E+00   -0.1095700474E+01
    0.1138525109E+00   -0.1148877601E+01
    0.1214426783E+00   -0.1199266889E+01
    0.1290328457E+00   -0.1246972798E+01
    0.1366230131E+00   -0.1292099788E+01
    0.1442131805E+00   -0.1334752318E+01
    0.1518033479E+00   -0.1375034850E+01
    0.1593935153E+00   -0.1413051843E+01
    0.1669836827E+00   -0.1448907756E+01
    0.1745738501E+00   -0.1482707050E+01
    0.1821640174E+00   -0.1514554186E+01
    0.1897541848E+00   -0.1544553622E+01
    0.1973443522E+00   -0.1572809820E+01
    0.2049345196E+00   -0.1599427238E+01
    0.2125246870E+00   -0.1624510336E+01
    0.2201148544E+00   -0.1648163575E+01
    0.2277050218E+00   -0.1670491416E+01
    0.2352951892E+00   -0.1691598317E+01
    0.2428853566E+00   -0.1711588739E+01
    0.2504755240E+00   -0.1730567141E+01
    0.2580656914E+00   -0.1748637985E+01
    0.2656558588E+00   -0.1765905729E+01
    0.2732460262E+00   -0.1782474835E+01
    0.2808361936E+00   -0.1798449761E+01
    0.2884263610E+00   -0.1813934968E+01
    0.2960165283E+00   -0.1829034914E+01
    0.3036066957E+00   -0.1843852230E+01
    0.3111968631E+00   -0.1858442043E+01
    0.3187870305E+00   -0.1872808805E+01
    0.3263771979E+00   -0.1886954502E+01
    0.3339673653E+00   -0.1900881117E+01
    0.3415575327E+00   -0.1914590633E+01
    0.3491477001E+00   -0.1928085033E+01
    0.3567378675E+00   -0.1941366304E+01
    0.3643280349E+00   -0.1954436428E+01
    0.3719182023E+00   -0.1967297388E+01
    0.3795083697E+00   -0.1979951169E+01
    0.3870985371E+00   -0.1992399756E+01
    0.3946887045E+00   -0.2004645129E+01
    0.4022788719E+00   -0.2016689277E+01
    0.4098690393E+00   -0.2028534180E+01
    0.4174592066E+00   -0.2040181822E+01
    0.4250493740E+00   -0.2051634189E+01
    0.4326395414E+00   -0.2062893265E+01
    0.4402297088E+00   -0.2073961032E+01
    0.4478198762E+00   -0.2084839474E+01
    0.4554100436E+00   -0.2095530575E+01
    0.4630002110E+00   -0.2106036320E+01
    0.4705903784E+00   -0.2116358692E+01
    0.4781805458E+00   -0.2126499674E+01
    0.4857707132E+00   -0.2136461252E+01
    0.4933608806E+00   -0.2146245409E+01
    0.5009510480E+00   -0.2155854128E+01
    0.5085412154E+00   -0.2165289393E+01
    0.5161313828E+00   -0.2174553188E+01
    0.5237215502E+00   -0.2183647498E+01
    0.5313117175E+00   -0.2192574305E+01
    0.5389018849E+00   -0.2201335594E+01
    0.5464920523E+00   -0.2209933349E+01
    0.5540822197E+00   -0.2218369554E+01
    0.5616723871E+00   -0.2226646192E+01
    0.5692625545E+00   -0.2234765247E+01
    0.5768527219E+00   -0.2242728703E+01
    0.5844428893E+00   -0.2250538545E+01
    0.5920330567E+00   -0.2258196754E+01
    0.5996232241E+00   -0.2265705317E+01
    0.6072133915E+00   -0.2273065738E+01
    0.6148035589E+00   -0.2280277298E+01
    0.6223937263E+00   -0.2287338632E+01
    0.6299838937E+00   -0.2294248381E+01
    0.6375740611E+00   -0.2301005178E+01
    0.6451642285E+00   -0.2307607662E+01
    0.6527543958E+00   -0.2314054467E+01
    0.6603445632E+00   -0.2320344231E+01
    0.6679347306E+00   -0.2326475592E+01
    0.6755248980E+00   -0.2332447184E+01
    0.6831150654E+00   -0.2338257645E+01
    0.6907052328E+00   -0.2343905612E+01
    0.6982954002E+00   -0.2349389722E+01
    0.7058855676E+00   -0.2354708609E+01
    0.7134757350E+00   -0.2359860913E+01
    0.7210659024E+00   -0.2364845269E+01
    0.7286560698E+00   -0.2369660313E+01
    0.7362462372E+00   -0.2374304682E+01
    0.7438364046E+00   -0.2378777013E+01
    0.7514265720E+00   -0.2383075943E+01
    0.7590167394E+00   -0.2387200108E+01
    0.7666069067E+00   -0.2391148145E+01
    0.7741970741E+00   -0.2394918690E+01
    0.7817872415E+00   -0.2398510380E+01
    0.7893774089E+00   -0.2401921852E+01
    0.7969675763E+00   -0.2405151742E+01
    0.8045577437E+00   -0.2408198688E+01
    0.8121479111E+00   -0.2411061324E+01
    0.8197380785E+00   -0.2413738289E+01
    0.8273282459E+00   -0.2416228218E+01
    0.8349184133E+00   -0.2418529749E+01
    0.8425085807E+00   -0.2420641518E+01
    0.8500987481E+00   -0.2422562162E+01
    0.8576889155E+00   -0.2424290317E+01
    0.8652790829E+00   -0.2425824620E+01
    0.8728692503E+00   -0.2427163707E+01
    0.8804594177E+00   -0.2428306216E+01
    0.8880495850E+00   -0.2429250781E+01
    0.8956397524E+00   -0.2429996042E+01
    0.9032299198E+00   -0.2430540634E+01
    0.9108200872E+00   -0.2430883194E+01
    0.9184102546E+00   -0.2431022357E+01
    0.9260004220E+00   -0.2430956761E+01
    0.9335905894E+00   -0.2430685043E+01
    0.9411807568E+00   -0.2430205840E+01
    0.9487709242E+00   -0.2429517787E+01
    0.9563610916E+00   -0.2428619521E+01
    0.9639512590E+00   -0.2427509679E+01
    0.9715414264E+00   -0.2426186898E+01
    0.9791315938E+00   -0.2424649815E+01
    0.9867217612E+00   -0.2422897064E+01
    0.9943119286E+00   -0.2420927285E+01
    0.1001902096E+01   -0.2418739157E+01
    0.1009492263E+01   -0.2416336597E+01
    0.1017082431E+01   -0.2413733688E+01
    0.1024672598E+01   -0.2410945668E+01
    0.1032262766E+01   -0.2407987783E+01
    0.1039852933E+01   -0.2404875274E+01
    0.1047443100E+01   -0.2401623384E+01
    0.1055033268E+01   -0.2398247359E+01
    0.1062623435E+01   -0.2394762437E+01
    0.1070213602E+01   -0.2391183865E+01
    0.1077803770E+01   -0.2387526883E+01
    0.1085393937E+01   -0.2383806736E+01
    0.1092984105E+01   -0.2380038665E+01
    0.1100574272E+01   -0.2376237914E+01
    0.1108164439E+01   -0.2372419726E+01
    0.1115754607E+01   -0.2368599343E+01
    0.1123344774E+01   -0.2364792010E+01
    0.1130934942E+01   -0.2361012966E+01
    0.1138525109E+01   -0.2357277459E+01
    0.1146115276E+01   -0.2353600727E+01
    0.1153705444E+01   -0.2349998015E+01
    0.1161295611E+01   -0.2346484566E+01
    0.1168885779E+01   -0.2343075623E+01
    0.1176475946E+01   -0.2339786429E+01
    0.1184066113E+01   -0.2336632226E+01
    0.1191656281E+01   -0.2333628257E+01
    0.1199246448E+01   -0.2330789765E+01
    0.1206836616E+01   -0.2328128443E+01
    0.1214426783E+01   -0.2325636814E+01
    0.1222016950E+01   -0.2323300967E+01
    0.1229607118E+01   -0.2321106985E+01
    0.1237197285E+01   -0.2319040952E+01
    0.1244787453E+01   -0.2317088951E+01
    0.1252377620E+01   -0.2315237066E+01
    0.1259967787E+01   -0.2313471381E+01
    0.1267557955E+01   -0.2311777978E+01
    0.1275148122E+01   -0.2310142941E+01
    0.1282738290E+01   -0.2308552354E+01
    0.1290328457E+01   -0.2306992300E+01
    0.1297918624E+01   -0.2305448862E+01
    0.1305508792E+01   -0.2303908124E+01
    0.1313098959E+01   -0.2302356170E+01
    0.1320689126E+01   -0.2300779082E+01
    0.1328279294E+01   -0.2299162945E+01
    0.1335869461E+01   -0.2297493842E+01
    0.1343459629E+01   -0.2295757855E+01
    0.1351049796E+01   -0.2293941069E+01
    0.1358639963E+01   -0.2292029568E+01
    0.1366230131E+01   -0.2290009434E+01
    0.1373820298E+01   -0.2287866751E+01
    0.1381410466E+01   -0.2285587603E+01
    0.1389000633E+01   -0.2283158073E+01
    0.1396590800E+01   -0.2280564244E+01
    0.1404180968E+01   -0.2277792587E+01
    0.1411771135E+01   -0.2274836675E+01
    0.1419361303E+01   -0.2271696297E+01
    0.1426951470E+01   -0.2268371453E+01
    0.1434541637E+01   -0.2264862143E+01
    0.1442131805E+01   -0.2261168367E+01
    0.1449721972E+01   -0.2257290125E+01
    0.1457312140E+01   -0.2253227418E+01
    0.1464902307E+01   -0.2248980244E+01
    0.1472492474E+01   -0.2244548605E+01
    0.1480082642E+01   -0.2239932501E+01
    0.1487672809E+01   -0.2235131929E+01
    0.1495262977E+01   -0.2230146892E+01
    0.1502853144E+01   -0.2224977389E+01
    0.1510443311E+01   -0.2219623420E+01
    0.1518033479E+01   -0.2214084986E+01
    0.1525623646E+01   -0.2208362084E+01
    0.1533213813E+01   -0.2202454718E+01
    0.1540803981E+01   -0.2196362886E+01
    0.1548394148E+01   -0.2190086587E+01
    0.1555984316E+01   -0.2183625823E+01
    0.1563574483E+01   -0.2176980593E+01
    0.1571164650E+01   -0.2170150897E+01
    0.1578754818E+01   -0.2163136735E+01
    0.1586344985E+01   -0.2155938108E+01
    0.1593935153E+01   -0.2148555013E+01
    0.1601525320E+01   -0.2140987454E+01
    0.1609115487E+01   -0.2133235429E+01
    0.1616705655E+01   -0.2125298938E+01
    0.1624295822E+01   -0.2117177980E+01
    0.1631885990E+01   -0.2108872557E+01
    0.1639476157E+01   -0.2100382668E+01
    0.1647066324E+01   -0.2091708313E+01
    0.1654656492E+01   -0.2082849492E+01
    0.1662246659E+01   -0.2073806205E+01
    0.1669836827E+01   -0.2064578453E+01
    0.1677426994E+01   -0.2055166234E+01
    0.1685017161E+01   -0.2045569549E+01
    0.1692607329E+01   -0.2035788399E+01
    0.1700197496E+01   -0.2025822783E+01
    0.1707787664E+01   -0.2015672701E+01
    0.1715377831E+01   -0.2005338152E+01
    0.1722967998E+01   -0.1994819139E+01
    0.1730558166E+01   -0.1984115659E+01
    0.1738148333E+01   -0.1973227714E+01
    0.1745738501E+01   -0.1962155302E+01
    0.1753328668E+01   -0.1950898424E+01
    0.1760918835E+01   -0.1939457081E+01
    0.1768509003E+01   -0.1927831272E+01
    0.1776099170E+01   -0.1916020996E+01
    0.1783689337E+01   -0.1904026255E+01
    0.1791279505E+01   -0.1891847048E+01
    0.1798869672E+01   -0.1879483375E+01
    0.1806459840E+01   -0.1866935236E+01
    0.1814050007E+01   -0.1854202631E+01
    0.1821640174E+01   -0.1841285561E+01
    0.1829230342E+01   -0.1828184024E+01
    0.1836820509E+01   -0.1814898022E+01
    0.1844410677E+01   -0.1801427553E+01
    0.1852000844E+01   -0.1787772620E+01
    0.1859591011E+01   -0.1773933220E+01
    0.1867181179E+01   -0.1759909353E+01
    0.1874771346E+01   -0.1745701022E+01
    0.1882361514E+01   -0.1731308224E+01
    0.1889951681E+01   -0.1716730961E+01
    0.1897541848E+01   -0.1701969231E+01
    0.1905132016E+01   -0.1687023035E+01
    0.1912722183E+01   -0.1671892374E+01
    0.1920312351E+01   -0.1656577247E+01
    0.1927902518E+01   -0.1641077654E+01
    0.1935492685E+01   -0.1625393594E+01
    0.1943082853E+01   -0.1609525070E+01
    0.1950673020E+01   -0.1593472079E+01
    0.1958263188E+01   -0.1577234622E+01
    0.1965853355E+01   -0.1560812699E+01
    0.1973443522E+01   -0.1544206311E+01
    0.1981033690E+01   -0.1527415457E+01
    0.1988623857E+01   -0.1510440136E+01
    0.1996214025E+01   -0.1493280350E+01
    0.2003804192E+01   -0.1475936095E+01
    0.2011394359E+01   -0.1458407365E+01
    0.2018984527E+01   -0.1440694160E+01
    0.2026574694E+01   -0.1422796479E+01
    0.2034164861E+01   -0.1404714323E+01
    0.2041755029E+01   -0.1386447691E+01
    0.2049345196E+01   -0.1367996584E+01
    0.2056935364E+01   -0.1349361002E+01
    0.2064525531E+01   -0.1330540944E+01
    0.2072115698E+01   -0.1311536410E+01
    0.2079705866E+01   -0.1292347401E+01
    0.2087296033E+01   -0.1272973917E+01
    0.2094886201E+01   -0.1253415957E+01
    0.2102476368E+01   -0.1233673521E+01
    0.2110066535E+01   -0.1213746611E+01
    0.2117656703E+01   -0.1193635224E+01
    0.2125246870E+01   -0.1173339363E+01
    0.2132837038E+01   -0.1152859025E+01
    0.2140427205E+01   -0.1132194213E+01
    0.2148017372E+01   -0.1111344925E+01
    0.2155607540E+01   -0.1090311161E+01
    0.2163197707E+01   -0.1069092922E+01
    0.2170787875E+01   -0.1047690207E+01
    0.2178378042E+01   -0.1026103018E+01
    0.2185968209E+01   -0.1004331352E+01
    0.2193558377E+01   -0.9823752112E+00
    0.2201148544E+01   -0.9602345948E+00
    0.2208738712E+01   -0.9379095029E+00
    0.2216328879E+01   -0.9153999356E+00
    0.2223919046E+01   -0.8927058928E+00
    0.2231509214E+01   -0.8698273745E+00
    0.2239099381E+01   -0.8467643807E+00
    0.2246689548E+01   -0.8235169115E+00
    0.2254279716E+01   -0.8000849668E+00
    0.2261869883E+01   -0.7764685466E+00
    0.2269460051E+01   -0.7526676509E+00
    0.2277050218E+01   -0.7286822798E+00
    0.2284640385E+01   -0.7045124332E+00
    0.2292230553E+01   -0.6801581111E+00
    0.2299820720E+01   -0.6556193135E+00
    0.2307410888E+01   -0.6308960404E+00
    0.2315001055E+01   -0.6059882918E+00
    0.2322591222E+01   -0.5808960678E+00
    0.2330181390E+01   -0.5556193682E+00
    0.2337771557E+01   -0.5301581932E+00
    0.2345361725E+01   -0.5045125427E+00
    0.2352951892E+01   -0.4786824167E+00
    0.2360542059E+01   -0.4526678152E+00
    0.2368132227E+01   -0.4264687382E+00
    0.2375722394E+01   -0.4000851857E+00
    0.2383312562E+01   -0.3735171578E+00
    0.2390902729E+01   -0.3467646543E+00
    0.2398492896E+01   -0.3198276753E+00
    0.2406083064E+01   -0.2927062209E+00
    0.2413673231E+01   -0.2654002909E+00
    0.2421263399E+01   -0.2379098854E+00
    0.2428853566E+01   -0.2102350045E+00
    0.2436443733E+01   -0.1823756480E+00
    0.2444033901E+01   -0.1543318161E+00
    0.2451624068E+01   -0.1261035086E+00
    0.2459214236E+01   -0.9769072564E-01
    0.2466804403E+01   -0.6909346717E-01
    0.2474394570E+01   -0.4031173319E-01
    0.2481984738E+01   -0.1134552371E-01
    0.2489574905E+01    0.1780516128E-01
    0.2497165072E+01    0.4714032178E-01
    0.2504755240E+01    0.7665995779E-01
    0.2512345407E+01    0.1063640693E+00
    0.2519935575E+01    0.1362526563E+00
    0.2527525742E+01    0.1663257189E+00
    0.2535115909E+01    0.1965832569E+00
    0.2542706077E+01    0.2270252705E+00
    0.2550296244E+01    0.2576517596E+00
    0.2557886412E+01    0.2884627242E+00
    0.2565476579E+01    0.3194581643E+00
    0.2573066746E+01    0.3506380799E+00
    0.2580656914E+01    0.3820024711E+00
    0.2588247081E+01    0.4135513378E+00
    0.2595837249E+01    0.4452846800E+00
    0.2603427416E+01    0.4772024977E+00
    0.2611017583E+01    0.5093047909E+00
    0.2618607751E+01    0.5415915597E+00
    0.2626197918E+01    0.5740628040E+00
    0.2633788086E+01    0.6067185238E+00
    0.2641378253E+01    0.6395587192E+00
    0.2648968420E+01    0.6725833900E+00
    0.2656558588E+01    0.7057925364E+00
    0.2664148755E+01    0.7391861583E+00
    0.2671738923E+01    0.7727642558E+00
    0.2679329090E+01    0.8065268288E+00
    0.2686919257E+01    0.8404738773E+00
    0.2694509425E+01    0.8746054014E+00
    0.2702099592E+01    0.9089214010E+00
    0.2709689759E+01    0.9434218761E+00
    0.2717279927E+01    0.9781068268E+00
    0.2724870094E+01    0.1012976253E+01
    0.2732460262E+01    0.1048030155E+01
    0.2740050429E+01    0.1083268532E+01
    0.2747640596E+01    0.1118691385E+01
    0.2755230764E+01    0.1154298713E+01
    0.2762820931E+01    0.1190090517E+01
    0.2770411099E+01    0.1226066797E+01
    0.2778001266E+01    0.1262227552E+01
    0.2785591433E+01    0.1298572782E+01
    0.2793181601E+01    0.1335102488E+01
    0.2800771768E+01    0.1371816670E+01
    0.2808361936E+01    0.1408715327E+01
    0.2815952103E+01    0.1445798460E+01
    0.2823542270E+01    0.1483066068E+01
    0.2831132438E+01    0.1520518152E+01
    0.2838722605E+01    0.1558154711E+01
    0.2846312773E+01    0.1595975746E+01
    0.2853902940E+01    0.1633981257E+01
    0.2861493107E+01    0.1672171243E+01
    0.2869083275E+01    0.1710545704E+01
    0.2876673442E+01    0.1749104641E+01
    0.2884263610E+01    0.1787848054E+01
    0.2891853777E+01    0.1826775942E+01
    0.2899443944E+01    0.1865888306E+01
    0.2907034112E+01    0.1905185146E+01
    0.2914624279E+01    0.1944666461E+01
    0.2922214447E+01    0.1984332251E+01
    0.2929804614E+01    0.2024182517E+01
    0.2937394781E+01    0.2064217259E+01
    0.2944984949E+01    0.2104436476E+01
    0.2952575116E+01    0.2144840169E+01
    0.2960165283E+01    0.2185428337E+01
    0.2967755451E+01    0.2226200981E+01
    0.2975345618E+01    0.2267158100E+01
    0.2982935786E+01    0.2308299696E+01
    0.2990525953E+01    0.2349625766E+01
    0.2998116120E+01    0.2391136312E+01
    0.3005706288E+01    0.2432831334E+01
    0.3013296455E+01    0.2474710831E+01
    0.3020886623E+01    0.2516774804E+01
    0.3028476790E+01    0.2559023253E+01
    0.3036066957E+01    0.2601456177E+01
    0.3043657125E+01    0.2644073577E+01
    0.3051247292E+01    0.2686875452E+01
    0.3058837460E+01    0.2729861803E+01
    0.3066427627E+01    0.2773032629E+01
    0.3074017794E+01    0.2816387931E+01
    0.3081607962E+01    0.2859927709E+01
    0.3089198129E+01    0.2903651962E+01
    0.3096788297E+01    0.2947560690E+01
    0.3104378464E+01    0.2991653895E+01
    0.3111968631E+01    0.3035931575E+01
    0.3119558799E+01    0.3080393730E+01
    0.3127148966E+01    0.3125040361E+01
    0.3134739134E+01    0.3169871468E+01
    0.3142329301E+01    0.3214887050E+01
    0.3149919468E+01    0.3260087108E+01
    0.3157509636E+01    0.3305471641E+01
    0.3165099803E+01    0.3351040650E+01
    0.3172689971E+01    0.3396794135E+01
    0.3180280138E+01    0.3442732095E+01
    0.3187870305E+01    0.3488854531E+01
    0.3195460473E+01    0.3535161443E+01
    0.3203050640E+01    0.3581652830E+01
    0.3210640807E+01    0.3628328692E+01
    0.3218230975E+01    0.3675189030E+01
    0.3225821142E+01    0.3722233844E+01
    0.3233411310E+01    0.3769463134E+01
    0.3241001477E+01    0.3816876899E+01
    0.3248591644E+01    0.3864475139E+01
    0.3256181812E+01    0.3912257855E+01
    0.3263771979E+01    0.3960225047E+01
    0.3271362147E+01    0.4008376715E+01
    0.3278952314E+01    0.4056712858E+01
    0.3286542481E+01    0.4105233476E+01
    0.3294132649E+01    0.4153938571E+01
    0.3301722816E+01    0.4202828141E+01
    0.3309312984E+01    0.4251902186E+01
    0.3316903151E+01    0.4301160707E+01
    0.3324493318E+01    0.4350603704E+01
    0.3332083486E+01    0.4400231176E+01
    0.3339673653E+01    0.4450043124E+01
    0.3347263821E+01    0.4500039548E+01
    0.3354853988E+01    0.4550220447E+01
    0.3362444155E+01    0.4600585822E+01
    0.3370034323E+01    0.4651135672E+01
    0.3377624490E+01    0.4701869998E+01
    0.3385214658E+01    0.4752788800E+01
    0.3392804825E+01    0.4803892077E+01
    0.3400394992E+01    0.4855179830E+01
    0.3407985160E+01    0.4906652059E+01
    0.3415575327E+01    0.4958308763E+01
    0.3423165494E+01    0.5010149943E+01
    0.3430755662E+01    0.5062175598E+01
    0.3438345829E+01    0.5114385729E+01
    0.3445935997E+01    0.5166780336E+01
    0.3453526164E+01    0.5219359418E+01
    0.3461116331E+01    0.5272122976E+01
    0.3468706499E+01    0.5325071010E+01
    0.3476296666E+01    0.5378203519E+01
    0.3483886834E+01    0.5431520504E+01
    0.3491477001E+01    0.5485021964E+01
    0.3499067168E+01    0.5538707900E+01
    0.3506657336E+01    0.5592578312E+01
    0.3514247503E+01    0.5646633199E+01
    0.3521837671E+01    0.5700872562E+01
    0.3529427838E+01    0.5755296401E+01
    0.3537018005E+01    0.5809904715E+01
    0.3544608173E+01    0.5864697505E+01
    0.3552198340E+01    0.5919674771E+01
    0.3559788508E+01    0.5974836512E+01
    0.3567378675E+01    0.6030182729E+01
    0.3574968842E+01    0.6085713422E+01
    0.3582559010E+01    0.6141428590E+01
    0.3590149177E+01    0.6197328234E+01
    0.3597739345E+01    0.6253412353E+01
    0.3605329512E+01    0.6309680948E+01
    0.3612919679E+01    0.6366134019E+01
    0.3620509847E+01    0.6422771565E+01
    0.3628100014E+01    0.6479593587E+01
    0.3635690182E+01    0.6536600085E+01
    0.3643280349E+01    0.6593791058E+01
    0.3650870516E+01    0.6651166507E+01
    0.3658460684E+01    0.6708726432E+01
