# ADP potential for the Al-Cu system 
# Source: F. Apostol and Y. Mishin, Phys. Rev. B 83, 054116 (2011)
# Contact information: ymishin@gmu.edu
# Pair interaction Al-Al
#   Distance (Angstr.)  Energy (eV) 
    0.1001762403E+01    0.6760334401E+01
    0.1003524807E+01    0.6733087841E+01
    0.1005287210E+01    0.6705980749E+01
    0.1007049613E+01    0.6679012546E+01
    0.1008812017E+01    0.6652182663E+01
    0.1010574420E+01    0.6625490530E+01
    0.1012336823E+01    0.6598935576E+01
    0.1014099227E+01    0.6572517231E+01
    0.1015861630E+01    0.6546234929E+01
    0.1017624033E+01    0.6520088103E+01
    0.1019386437E+01    0.6494076187E+01
    0.1021148840E+01    0.6468198620E+01
    0.1022911243E+01    0.6442454835E+01
    0.1024673647E+01    0.6416844273E+01
    0.1026436050E+01    0.6391366372E+01
    0.1028198453E+01    0.6366020572E+01
    0.1029960857E+01    0.6340806316E+01
    0.1031723260E+01    0.6315723047E+01
    0.1033485663E+01    0.6290770208E+01
    0.1035248067E+01    0.6265947244E+01
    0.1037010470E+01    0.6241253601E+01
    0.1038772873E+01    0.6216688728E+01
    0.1040535277E+01    0.6192252073E+01
    0.1042297680E+01    0.6167943086E+01
    0.1044060083E+01    0.6143761218E+01
    0.1045822487E+01    0.6119705921E+01
    0.1047584890E+01    0.6095776647E+01
    0.1049347293E+01    0.6071972851E+01
    0.1051109697E+01    0.6048293989E+01
    0.1052872100E+01    0.6024739517E+01
    0.1054634503E+01    0.6001308896E+01
    0.1056396907E+01    0.5978001580E+01
    0.1058159310E+01    0.5954817034E+01
    0.1059921713E+01    0.5931754715E+01
    0.1061684117E+01    0.5908814089E+01
    0.1063446520E+01    0.5885994617E+01
    0.1065208923E+01    0.5863295766E+01
    0.1066971327E+01    0.5840717002E+01
    0.1068733730E+01    0.5818257791E+01
    0.1070496133E+01    0.5795917601E+01
    0.1072258537E+01    0.5773695900E+01
    0.1074020940E+01    0.5751592164E+01
    0.1075783343E+01    0.5729605859E+01
    0.1077545747E+01    0.5707736462E+01
    0.1079308150E+01    0.5685983445E+01
    0.1081070553E+01    0.5664346283E+01
    0.1082832957E+01    0.5642824454E+01
    0.1084595360E+01    0.5621417434E+01
    0.1086357763E+01    0.5600124702E+01
    0.1088120167E+01    0.5578945740E+01
    0.1089882570E+01    0.5557880026E+01
    0.1091644973E+01    0.5536927043E+01
    0.1093407377E+01    0.5516086275E+01
    0.1095169780E+01    0.5495357207E+01
    0.1096932183E+01    0.5474739325E+01
    0.1098694587E+01    0.5454232113E+01
    0.1100456990E+01    0.5433835062E+01
    0.1102219393E+01    0.5413547659E+01
    0.1103981797E+01    0.5393369397E+01
    0.1105744200E+01    0.5373299764E+01
    0.1107506603E+01    0.5353338255E+01
    0.1109269007E+01    0.5333484363E+01
    0.1111031410E+01    0.5313737583E+01
    0.1112793813E+01    0.5294097412E+01
    0.1114556217E+01    0.5274563345E+01
    0.1116318620E+01    0.5255134882E+01
    0.1118081023E+01    0.5235811523E+01
    0.1119843427E+01    0.5216592768E+01
    0.1121605830E+01    0.5197478118E+01
    0.1123368233E+01    0.5178467078E+01
    0.1125130637E+01    0.5159559152E+01
    0.1126893040E+01    0.5140753843E+01
    0.1128655443E+01    0.5122050659E+01
    0.1130417847E+01    0.5103449108E+01
    0.1132180250E+01    0.5084948699E+01
    0.1133942653E+01    0.5066548941E+01
    0.1135705057E+01    0.5048249346E+01
    0.1137467460E+01    0.5030049426E+01
    0.1139229863E+01    0.5011948694E+01
    0.1140992267E+01    0.4993946665E+01
    0.1142754670E+01    0.4976042854E+01
    0.1144517073E+01    0.4958236780E+01
    0.1146279477E+01    0.4940527959E+01
    0.1148041880E+01    0.4922915912E+01
    0.1149804283E+01    0.4905400157E+01
    0.1151566687E+01    0.4887980218E+01
    0.1153329090E+01    0.4870655616E+01
    0.1155091493E+01    0.4853425876E+01
    0.1156853897E+01    0.4836290522E+01
    0.1158616300E+01    0.4819249082E+01
    0.1160378703E+01    0.4802301081E+01
    0.1162141107E+01    0.4785446049E+01
    0.1163903510E+01    0.4768683515E+01
    0.1165665913E+01    0.4752013010E+01
    0.1167428317E+01    0.4735434067E+01
    0.1169190720E+01    0.4718946218E+01
    0.1170953123E+01    0.4702548997E+01
    0.1172715527E+01    0.4686241940E+01
    0.1174477930E+01    0.4670024583E+01
    0.1176240333E+01    0.4653896465E+01
    0.1178002737E+01    0.4637857125E+01
    0.1179765140E+01    0.4621906101E+01
    0.1181527543E+01    0.4606042936E+01
    0.1183289947E+01    0.4590267172E+01
    0.1185052350E+01    0.4574578352E+01
    0.1186814753E+01    0.4558976023E+01
    0.1188577157E+01    0.4543459727E+01
    0.1190339560E+01    0.4528029015E+01
    0.1192101963E+01    0.4512683432E+01
    0.1193864367E+01    0.4497422529E+01
    0.1195626770E+01    0.4482245857E+01
    0.1197389173E+01    0.4467152965E+01
    0.1199151577E+01    0.4452143409E+01
    0.1200913980E+01    0.4437216741E+01
    0.1202676383E+01    0.4422372517E+01
    0.1204438787E+01    0.4407610293E+01
    0.1206201190E+01    0.4392929627E+01
    0.1207963593E+01    0.4378330076E+01
    0.1209725997E+01    0.4363811202E+01
    0.1211488400E+01    0.4349372564E+01
    0.1213250803E+01    0.4335013726E+01
    0.1215013207E+01    0.4320734248E+01
    0.1216775610E+01    0.4306533697E+01
    0.1218538013E+01    0.4292411639E+01
    0.1220300417E+01    0.4278367639E+01
    0.1222062820E+01    0.4264401266E+01
    0.1223825223E+01    0.4250512089E+01
    0.1225587627E+01    0.4236699677E+01
    0.1227350030E+01    0.4222963602E+01
    0.1229112433E+01    0.4209303437E+01
    0.1230874837E+01    0.4195718756E+01
    0.1232637240E+01    0.4182209131E+01
    0.1234399643E+01    0.4168774141E+01
    0.1236162047E+01    0.4155413364E+01
    0.1237924450E+01    0.4142126375E+01
    0.1239686853E+01    0.4128912755E+01
    0.1241449257E+01    0.4115772085E+01
    0.1243211660E+01    0.4102703945E+01
    0.1244974063E+01    0.4089707920E+01
    0.1246736467E+01    0.4076783594E+01
    0.1248498870E+01    0.4063930551E+01
    0.1250261273E+01    0.4051148377E+01
    0.1252023677E+01    0.4038436662E+01
    0.1253786080E+01    0.4025794992E+01
    0.1255548483E+01    0.4013222959E+01
    0.1257310887E+01    0.4000720152E+01
    0.1259073290E+01    0.3988286164E+01
    0.1260835693E+01    0.3975920589E+01
    0.1262598097E+01    0.3963623021E+01
    0.1264360500E+01    0.3951393056E+01
    0.1266122903E+01    0.3939230290E+01
    0.1267885307E+01    0.3927134322E+01
    0.1269647710E+01    0.3915104750E+01
    0.1271410113E+01    0.3903141176E+01
    0.1273172517E+01    0.3891243199E+01
    0.1274934920E+01    0.3879410424E+01
    0.1276697323E+01    0.3867642453E+01
    0.1278459727E+01    0.3855938892E+01
    0.1280222130E+01    0.3844299346E+01
    0.1281984533E+01    0.3832723423E+01
    0.1283746937E+01    0.3821210731E+01
    0.1285509340E+01    0.3809760880E+01
    0.1287271743E+01    0.3798373481E+01
    0.1289034147E+01    0.3787048145E+01
    0.1290796550E+01    0.3775784486E+01
    0.1292558953E+01    0.3764582117E+01
    0.1294321357E+01    0.3753440654E+01
    0.1296083760E+01    0.3742359713E+01
    0.1297846163E+01    0.3731338912E+01
    0.1299608567E+01    0.3720377871E+01
    0.1301370970E+01    0.3709476208E+01
    0.1303133373E+01    0.3698633545E+01
    0.1304895777E+01    0.3687849504E+01
    0.1306658180E+01    0.3677123709E+01
    0.1308420583E+01    0.3666455784E+01
    0.1310182987E+01    0.3655845355E+01
    0.1311945390E+01    0.3645292049E+01
    0.1313707793E+01    0.3634795493E+01
    0.1315470197E+01    0.3624355319E+01
    0.1317232600E+01    0.3613971154E+01
    0.1318995003E+01    0.3603642631E+01
    0.1320757407E+01    0.3593369384E+01
    0.1322519810E+01    0.3583151044E+01
    0.1324282213E+01    0.3572987249E+01
    0.1326044617E+01    0.3562877635E+01
    0.1327807020E+01    0.3552821836E+01
    0.1329569423E+01    0.3542819493E+01
    0.1331331827E+01    0.3532870246E+01
    0.1333094230E+01    0.3522973735E+01
    0.1334856633E+01    0.3513129601E+01
    0.1336619037E+01    0.3503337489E+01
    0.1338381440E+01    0.3493597043E+01
    0.1340143843E+01    0.3483907907E+01
    0.1341906247E+01    0.3474269729E+01
    0.1343668650E+01    0.3464682156E+01
    0.1345431053E+01    0.3455144838E+01
    0.1347193457E+01    0.3445657423E+01
    0.1348955860E+01    0.3436219563E+01
    0.1350718263E+01    0.3426830913E+01
    0.1352480667E+01    0.3417491122E+01
    0.1354243070E+01    0.3408199849E+01
    0.1356005473E+01    0.3398956746E+01
    0.1357767877E+01    0.3389761473E+01
    0.1359530280E+01    0.3380613687E+01
    0.1361292683E+01    0.3371513047E+01
    0.1363055087E+01    0.3362459214E+01
    0.1364817490E+01    0.3353451850E+01
    0.1366579893E+01    0.3344490618E+01
    0.1368342297E+01    0.3335575179E+01
    0.1370104700E+01    0.3326705201E+01
    0.1371867103E+01    0.3317880352E+01
    0.1373629507E+01    0.3309100295E+01
    0.1375391910E+01    0.3300364701E+01
    0.1377154313E+01    0.3291673239E+01
    0.1378916717E+01    0.3283025581E+01
    0.1380679120E+01    0.3274421398E+01
    0.1382441523E+01    0.3265860364E+01
    0.1384203927E+01    0.3257342153E+01
    0.1385966330E+01    0.3248866439E+01
    0.1387728733E+01    0.3240432902E+01
    0.1389491137E+01    0.3232041217E+01
    0.1391253540E+01    0.3223691066E+01
    0.1393015943E+01    0.3215382125E+01
    0.1394778347E+01    0.3207114078E+01
    0.1396540750E+01    0.3198886608E+01
    0.1398303153E+01    0.3190699396E+01
    0.1400065557E+01    0.3182552130E+01
    0.1401827960E+01    0.3174444494E+01
    0.1403590363E+01    0.3166376175E+01
    0.1405352767E+01    0.3158346862E+01
    0.1407115170E+01    0.3150356245E+01
    0.1408877573E+01    0.3142404012E+01
    0.1410639977E+01    0.3134489859E+01
    0.1412402380E+01    0.3126613474E+01
    0.1414164783E+01    0.3118774554E+01
    0.1415927187E+01    0.3110972795E+01
    0.1417689590E+01    0.3103207891E+01
    0.1419451993E+01    0.3095479542E+01
    0.1421214397E+01    0.3087787444E+01
    0.1422976800E+01    0.3080131299E+01
    0.1424739203E+01    0.3072510807E+01
    0.1426501607E+01    0.3064925669E+01
    0.1428264010E+01    0.3057375592E+01
    0.1430026413E+01    0.3049860275E+01
    0.1431788817E+01    0.3042379430E+01
    0.1433551220E+01    0.3034932758E+01
    0.1435313623E+01    0.3027519970E+01
    0.1437076027E+01    0.3020140776E+01
    0.1438838430E+01    0.3012794884E+01
    0.1440600833E+01    0.3005482006E+01
    0.1442363237E+01    0.2998201855E+01
    0.1444125640E+01    0.2990954145E+01
    0.1445888043E+01    0.2983738590E+01
    0.1447650447E+01    0.2976554907E+01
    0.1449412850E+01    0.2969402812E+01
    0.1451175253E+01    0.2962282025E+01
    0.1452937657E+01    0.2955192264E+01
    0.1454700060E+01    0.2948133250E+01
    0.1456462463E+01    0.2941104706E+01
    0.1458224867E+01    0.2934106354E+01
    0.1459987270E+01    0.2927137918E+01
    0.1461749673E+01    0.2920199125E+01
    0.1463512077E+01    0.2913289699E+01
    0.1465274480E+01    0.2906409368E+01
    0.1467036883E+01    0.2899557863E+01
    0.1468799287E+01    0.2892734911E+01
    0.1470561690E+01    0.2885940246E+01
    0.1472324093E+01    0.2879173600E+01
    0.1474086497E+01    0.2872434703E+01
    0.1475848900E+01    0.2865723292E+01
    0.1477611303E+01    0.2859039104E+01
    0.1479373707E+01    0.2852381872E+01
    0.1481136110E+01    0.2845751339E+01
    0.1482898513E+01    0.2839147241E+01
    0.1484660917E+01    0.2832569319E+01
    0.1486423320E+01    0.2826017315E+01
    0.1488185723E+01    0.2819490970E+01
    0.1489948127E+01    0.2812990031E+01
    0.1491710530E+01    0.2806514240E+01
    0.1493472933E+01    0.2800063345E+01
    0.1495235337E+01    0.2793637091E+01
    0.1496997740E+01    0.2787235230E+01
    0.1498760143E+01    0.2780857509E+01
    0.1500522547E+01    0.2774503679E+01
    0.1502284950E+01    0.2768173494E+01
    0.1504047353E+01    0.2761866704E+01
    0.1505809757E+01    0.2755583065E+01
    0.1507572160E+01    0.2749322332E+01
    0.1509334563E+01    0.2743084262E+01
    0.1511096967E+01    0.2736868614E+01
    0.1512859370E+01    0.2730675145E+01
    0.1514621773E+01    0.2724503614E+01
    0.1516384177E+01    0.2718353785E+01
    0.1518146580E+01    0.2712225417E+01
    0.1519908983E+01    0.2706118278E+01
    0.1521671387E+01    0.2700032129E+01
    0.1523433790E+01    0.2693966737E+01
    0.1525196193E+01    0.2687921869E+01
    0.1526958597E+01    0.2681897293E+01
    0.1528721000E+01    0.2675892780E+01
    0.1530483403E+01    0.2669908098E+01
    0.1532245807E+01    0.2663943020E+01
    0.1534008210E+01    0.2657997317E+01
    0.1535770613E+01    0.2652070767E+01
    0.1537533017E+01    0.2646163141E+01
    0.1539295420E+01    0.2640274215E+01
    0.1541057823E+01    0.2634403770E+01
    0.1542820227E+01    0.2628551582E+01
    0.1544582630E+01    0.2622717432E+01
    0.1546345033E+01    0.2616901100E+01
    0.1548107437E+01    0.2611102368E+01
    0.1549869840E+01    0.2605321020E+01
    0.1551632243E+01    0.2599556839E+01
    0.1553394647E+01    0.2593809613E+01
    0.1555157050E+01    0.2588079126E+01
    0.1556919453E+01    0.2582365168E+01
    0.1558681857E+01    0.2576667524E+01
    0.1560444260E+01    0.2570985990E+01
    0.1562206663E+01    0.2565320353E+01
    0.1563969067E+01    0.2559670407E+01
    0.1565731470E+01    0.2554035946E+01
    0.1567493873E+01    0.2548416764E+01
    0.1569256277E+01    0.2542812656E+01
    0.1571018680E+01    0.2537223422E+01
    0.1572781083E+01    0.2531648857E+01
    0.1574543487E+01    0.2526088763E+01
    0.1576305890E+01    0.2520542939E+01
    0.1578068293E+01    0.2515011188E+01
    0.1579830697E+01    0.2509493310E+01
    0.1581593100E+01    0.2503989114E+01
    0.1583355503E+01    0.2498498400E+01
    0.1585117907E+01    0.2493020977E+01
    0.1586880310E+01    0.2487556653E+01
    0.1588642713E+01    0.2482105236E+01
    0.1590405117E+01    0.2476666535E+01
    0.1592167520E+01    0.2471240362E+01
    0.1593929923E+01    0.2465826528E+01
    0.1595692327E+01    0.2460424847E+01
    0.1597454730E+01    0.2455035135E+01
    0.1599217133E+01    0.2449657205E+01
    0.1600979537E+01    0.2444290876E+01
    0.1602741940E+01    0.2438935965E+01
    0.1604504343E+01    0.2433592290E+01
    0.1606266747E+01    0.2428259673E+01
    0.1608029150E+01    0.2422937935E+01
    0.1609791553E+01    0.2417626897E+01
    0.1611553957E+01    0.2412326384E+01
    0.1613316360E+01    0.2407036221E+01
    0.1615078763E+01    0.2401756235E+01
    0.1616841167E+01    0.2396486251E+01
    0.1618603570E+01    0.2391226099E+01
    0.1620365973E+01    0.2385975607E+01
    0.1622128377E+01    0.2380734606E+01
    0.1623890780E+01    0.2375502931E+01
    0.1625653183E+01    0.2370280410E+01
    0.1627415587E+01    0.2365066881E+01
    0.1629177990E+01    0.2359862177E+01
    0.1630940393E+01    0.2354666135E+01
    0.1632702797E+01    0.2349478594E+01
    0.1634465200E+01    0.2344299391E+01
    0.1636227603E+01    0.2339128367E+01
    0.1637990007E+01    0.2333965363E+01
    0.1639752410E+01    0.2328810220E+01
    0.1641514813E+01    0.2323662782E+01
    0.1643277217E+01    0.2318522895E+01
    0.1645039620E+01    0.2313390403E+01
    0.1646802023E+01    0.2308265153E+01
    0.1648564427E+01    0.2303146995E+01
    0.1650326830E+01    0.2298035775E+01
    0.1652089233E+01    0.2292931346E+01
    0.1653851637E+01    0.2287833559E+01
    0.1655614040E+01    0.2282742265E+01
    0.1657376443E+01    0.2277657320E+01
    0.1659138847E+01    0.2272578577E+01
    0.1660901250E+01    0.2267505895E+01
    0.1662663653E+01    0.2262439128E+01
    0.1664426057E+01    0.2257378136E+01
    0.1666188460E+01    0.2252322779E+01
    0.1667950863E+01    0.2247272917E+01
    0.1669713267E+01    0.2242228413E+01
    0.1671475670E+01    0.2237189128E+01
    0.1673238073E+01    0.2232154929E+01
    0.1675000477E+01    0.2227125679E+01
    0.1676762880E+01    0.2222101245E+01
    0.1678525283E+01    0.2217081497E+01
    0.1680287687E+01    0.2212066300E+01
    0.1682050090E+01    0.2207055527E+01
    0.1683812493E+01    0.2202049049E+01
    0.1685574897E+01    0.2197046737E+01
    0.1687337300E+01    0.2192048466E+01
    0.1689099703E+01    0.2187054108E+01
    0.1690862107E+01    0.2182063543E+01
    0.1692624510E+01    0.2177076643E+01
    0.1694386913E+01    0.2172093290E+01
    0.1696149317E+01    0.2167113363E+01
    0.1697911720E+01    0.2162136741E+01
    0.1699674123E+01    0.2157163305E+01
    0.1701436527E+01    0.2152192940E+01
    0.1703198930E+01    0.2147225528E+01
    0.1704961333E+01    0.2142260956E+01
    0.1706723737E+01    0.2137299107E+01
    0.1708486140E+01    0.2132339872E+01
    0.1710248543E+01    0.2127383138E+01
    0.1712010947E+01    0.2122428795E+01
    0.1713773350E+01    0.2117476734E+01
    0.1715535753E+01    0.2112526845E+01
    0.1717298157E+01    0.2107579024E+01
    0.1719060560E+01    0.2102633164E+01
    0.1720822963E+01    0.2097689161E+01
    0.1722585367E+01    0.2092746910E+01
    0.1724347770E+01    0.2087806312E+01
    0.1726110173E+01    0.2082867263E+01
    0.1727872577E+01    0.2077929665E+01
    0.1729634980E+01    0.2072993419E+01
    0.1731397383E+01    0.2068058426E+01
    0.1733159787E+01    0.2063124590E+01
    0.1734922190E+01    0.2058191817E+01
    0.1736684593E+01    0.2053260013E+01
    0.1738446997E+01    0.2048329084E+01
    0.1740209400E+01    0.2043398938E+01
    0.1741971803E+01    0.2038469485E+01
    0.1743734207E+01    0.2033540636E+01
    0.1745496610E+01    0.2028612302E+01
    0.1747259013E+01    0.2023684398E+01
    0.1749021417E+01    0.2018756833E+01
    0.1750783820E+01    0.2013829527E+01
    0.1752546223E+01    0.2008902394E+01
    0.1754308627E+01    0.2003975353E+01
    0.1756071030E+01    0.1999048322E+01
    0.1757833433E+01    0.1994121220E+01
    0.1759595837E+01    0.1989193968E+01
    0.1761358240E+01    0.1984266490E+01
    0.1763120643E+01    0.1979338706E+01
    0.1764883047E+01    0.1974410544E+01
    0.1766645450E+01    0.1969481928E+01
    0.1768407853E+01    0.1964552785E+01
    0.1770170257E+01    0.1959623042E+01
    0.1771932660E+01    0.1954692629E+01
    0.1773695063E+01    0.1949761475E+01
    0.1775457467E+01    0.1944829515E+01
    0.1777219870E+01    0.1939896677E+01
    0.1778982273E+01    0.1934962898E+01
    0.1780744677E+01    0.1930028110E+01
    0.1782507080E+01    0.1925092252E+01
    0.1784269483E+01    0.1920155259E+01
    0.1786031887E+01    0.1915217070E+01
    0.1787794290E+01    0.1910277624E+01
    0.1789556693E+01    0.1905336863E+01
    0.1791319097E+01    0.1900394728E+01
    0.1793081500E+01    0.1895451162E+01
    0.1794843903E+01    0.1890506109E+01
    0.1796606307E+01    0.1885559514E+01
    0.1798368710E+01    0.1880611324E+01
    0.1800131113E+01    0.1875661488E+01
    0.1801893517E+01    0.1870709951E+01
    0.1803655920E+01    0.1865756665E+01
    0.1805418323E+01    0.1860801582E+01
    0.1807180727E+01    0.1855844653E+01
    0.1808943130E+01    0.1850885833E+01
    0.1810705533E+01    0.1845925075E+01
    0.1812467937E+01    0.1840962335E+01
    0.1814230340E+01    0.1835997569E+01
    0.1815992743E+01    0.1831030736E+01
    0.1817755147E+01    0.1826061795E+01
    0.1819517550E+01    0.1821090707E+01
    0.1821279953E+01    0.1816117432E+01
    0.1823042357E+01    0.1811141934E+01
    0.1824804760E+01    0.1806164178E+01
    0.1826567163E+01    0.1801184125E+01
    0.1828329567E+01    0.1796201745E+01
    0.1830091970E+01    0.1791217002E+01
    0.1831854373E+01    0.1786229868E+01
    0.1833616777E+01    0.1781240309E+01
    0.1835379180E+01    0.1776248299E+01
    0.1837141583E+01    0.1771253808E+01
    0.1838903987E+01    0.1766256809E+01
    0.1840666390E+01    0.1761257277E+01
    0.1842428793E+01    0.1756255187E+01
    0.1844191197E+01    0.1751250516E+01
    0.1845953600E+01    0.1746243240E+01
    0.1847716003E+01    0.1741233340E+01
    0.1849478407E+01    0.1736220797E+01
