# ADP potential Cu-Ta 
# A. Hashibo, A. Y. Lozovoi, Y. Mishin, C. Elsässer and P. Gumbsch,
# Interatomic Potential for the Cu-Ta System and its Application 
# to Surface Wetting and Dewetting, Phys. Rev. B 77, 094131 (2008)
# Embedding energy of Ta
# Electron density        Energy (eV)
  7.256255251873361E-003 -0.160569966700000     
  1.451251050374672E-002 -0.279531533200000     
  2.176876575562008E-002 -0.382564439800000     
  2.902502100749344E-002 -0.475197110300000     
  3.628127625936681E-002 -0.560113132900000     
  4.353753151124017E-002 -0.638969881300000     
  5.079378676311353E-002 -0.712916655800000     
  5.805004201498689E-002 -0.782781806300000     
  6.530629726686026E-002 -0.849181490200000     
  7.256255251873361E-002 -0.912586863300000     
  7.981880777060697E-002 -0.973366863400000     
  8.707506302248033E-002  -1.03181635900000     
  9.433131827435370E-002  -1.08817523800000     
  0.101587573526227       -1.14264170400000     
  0.108843828778100       -1.19538177100000     
  0.116100084029974       -1.24653617300000     
  0.123356339281847       -1.29622551000000     
  0.130612594533721       -1.34455412100000     
  0.137868849785594       -1.39161306200000     
  0.145125105037467       -1.43748242200000     
  0.152381360289341       -1.48223314600000     
  0.159637615541214       -1.52592848300000     
  0.166893870793087       -1.56862515000000     
  0.174150126044961       -1.61037429000000     
  0.181406381296834       -1.65122224100000     
  0.188662636548707       -1.69121118000000     
  0.195918891800581       -1.73037966100000     
  0.203175147052454       -1.76876306200000     
  0.210431402304327       -1.80639395700000     
  0.217687657556201       -1.84330245000000     
  0.224943912808074       -1.87951643900000     
  0.232200168059948       -1.91506185500000     
  0.239456423311821       -1.94996286700000     
  0.246712678563694       -1.98424205900000     
  0.253968933815568       -2.01792057800000     
  0.261225189067441       -2.05101827700000     
  0.268481444319314       -2.08355382700000     
  0.275737699571188       -2.11554482400000     
  0.282993954823061       -2.14700788100000     
  0.290250210074934       -2.17795870800000     
  0.297506465326808       -2.20841218900000     
  0.304762720578681       -2.23838244200000     
  0.312018975830555       -2.26788288300000     
  0.319275231082428       -2.29692627700000     
  0.326531486334301       -2.32552478000000     
  0.333787741586175       -2.35368999100000     
  0.341043996838048       -2.38143298500000     
  0.348300252089921       -2.40876434700000     
  0.355556507341795       -2.43569421000000     
  0.362812762593668       -2.46223227900000     
  0.370069017845541       -2.48838786300000     
  0.377325273097415       -2.51416989100000     
  0.384581528349288       -2.53958694400000     
  0.391837783601162       -2.56464727200000     
  0.399094038853035       -2.58935880700000     
  0.406350294104908       -2.61372919200000     
  0.413606549356782       -2.63776579000000     
  0.420862804608655       -2.66147569900000     
  0.428119059860528       -2.68486576900000     
  0.435375315112402       -2.70794261200000     
  0.442631570364275       -2.73071261700000     
  0.449887825616148       -2.75318195700000     
  0.457144080868022       -2.77535660600000     
  0.464400336119895       -2.79724234200000     
  0.471656591371768       -2.81884475900000     
  0.478912846623642       -2.84016927500000     
  0.486169101875515       -2.86122114400000     
  0.493425357127389       -2.88200545400000     
  0.500681612379262       -2.90252714600000     
  0.507937867631135       -2.92279101000000     
  0.515194122883009       -2.94280169700000     
  0.522450378134882       -2.96256372500000     
  0.529706633386755       -2.98208148300000     
  0.536962888638629       -3.00135923200000     
  0.544219143890502       -3.02040111900000     
  0.551475399142375       -3.03921117600000     
  0.558731654394249       -3.05779332400000     
  0.565987909646122       -3.07615137700000     
  0.573244164897996       -3.09428905000000     
  0.580500420149869       -3.11220996000000     
  0.587756675401742       -3.12991762600000     
  0.595012930653616       -3.14741548000000     
  0.602269185905489       -3.16470686300000     
  0.609525441157362       -3.18179503200000     
  0.616781696409236       -3.19868316300000     
  0.624037951661109       -3.21537435200000     
  0.631294206912982       -3.23187161600000     
  0.638550462164856       -3.24817790100000     
  0.645806717416729       -3.26429608000000     
  0.653062972668602       -3.28022895700000     
  0.660319227920476       -3.29597926600000     
  0.667575483172349       -3.31154967700000     
  0.674831738424223       -3.32694280000000     
  0.682087993676096       -3.34216117600000     
  0.689344248927969       -3.35720729300000     
  0.696600504179843       -3.37208357900000     
  0.703856759431716       -3.38679240300000     
  0.711113014683589       -3.40133608200000     
  0.718369269935463       -3.41571688000000     
  0.725625525187336       -3.42993700500000     
  0.732881780439209       -3.44399862000000     
  0.740138035691083       -3.45790383700000     
  0.747394290942956       -3.47165471600000     
  0.754650546194830       -3.48525327700000     
  0.761906801446703       -3.49870148900000     
  0.769163056698576       -3.51200128100000     
  0.776419311950450       -3.52515453500000     
  0.783675567202323       -3.53816309300000     
  0.790931822454196       -3.55102875600000     
  0.798188077706070       -3.56375328200000     
  0.805444332957943       -3.57633839300000     
  0.812700588209816       -3.58878577200000     
  0.819956843461690       -3.60109706200000     
  0.827213098713563       -3.61327387100000     
  0.834469353965437       -3.62531777300000     
  0.841725609217310       -3.63723030300000     
  0.848981864469183       -3.64901296300000     
  0.856238119721057       -3.66066722300000     
  0.863494374972930       -3.67219451900000     
  0.870750630224803       -3.68359625200000     
  0.878006885476677       -3.69487379500000     
  0.885263140728550       -3.70602848900000     
  0.892519395980423       -3.71706164200000     
  0.899775651232297       -3.72797453500000     
  0.907031906484170       -3.73876841900000     
  0.914288161736044       -3.74944451500000     
  0.921544416987917       -3.76000401600000     
  0.928800672239790       -3.77044809000000     
  0.936056927491664       -3.78077787100000     
  0.943313182743537       -3.79099447200000     
  0.950569437995410       -3.80109897800000     
  0.957825693247284       -3.81109244800000     
  0.965081948499157       -3.82097591400000     
  0.972338203751030       -3.83075038400000     
  0.979594459002904       -3.84041684200000     
  0.986850714254777       -3.84997624500000     
  0.994106969506651       -3.85942952800000     
   1.00136322475852       -3.86877760200000     
   1.00861948001040       -3.87802135400000     
   1.01587573526227       -3.88716164600000     
   1.02313199051414       -3.89619932300000     
   1.03038824576602       -3.90513520100000     
   1.03764450101789       -3.91397007700000     
   1.04490075626976       -3.92270472600000     
   1.05215701152164       -3.93133990200000     
   1.05941326677351       -3.93987633400000     
   1.06666952202538       -3.94831473400000     
   1.07392577727726       -3.95665579200000     
   1.08118203252913       -3.96490017500000     
   1.08843828778100       -3.97304853300000     
   1.09569454303288       -3.98110149400000     
   1.10295079828475       -3.98905966400000     
   1.11020705353662       -3.99692363300000     
   1.11746330878850       -4.00469397000000     
   1.12471956404037       -4.01237122200000     
   1.13197581929224       -4.01995591900000     
   1.13923207454412       -4.02744857200000     
   1.14648832979599       -4.03484967400000     
   1.15374458504786       -4.04215969500000     
   1.16100084029974       -4.04937909100000     
   1.16825709555161       -4.05650829700000     
   1.17551335080348       -4.06354772800000     
   1.18276960605536       -4.07049778500000     
   1.19002586130723       -4.07735884900000     
   1.19728211655910       -4.08413128000000     
   1.20453837181098       -4.09081542300000     
   1.21179462706285       -4.09741160700000     
   1.21905088231472       -4.10392013700000     
   1.22630713756660       -4.11034130600000     
   1.23356339281847       -4.11667538900000     
   1.24081964807034       -4.12292263800000     
   1.24807590332222       -4.12908329500000     
   1.25533215857409       -4.13515757900000     
   1.26258841382596       -4.14114569600000     
   1.26984466907784       -4.14704782900000     
   1.27710092432971       -4.15286415000000     
   1.28435717958158       -4.15859481000000     
   1.29161343483346       -4.16423994300000     
   1.29886969008533       -4.16979966800000     
   1.30612594533720       -4.17527408600000     
   1.31338220058908       -4.18066327900000     
   1.32063845584095       -4.18596731400000     
   1.32789471109283       -4.19118624100000     
   1.33515096634470       -4.19632009200000     
   1.34240722159657       -4.20136888200000     
   1.34966347684845       -4.20633261000000     
   1.35691973210032       -4.21121125800000     
   1.36417598735219       -4.21600478900000     
   1.37143224260407       -4.22071315100000     
   1.37868849785594       -4.22533627500000     
   1.38594475310781       -4.22987407200000     
   1.39320100835969       -4.23432643900000     
   1.40045726361156       -4.23869325600000     
   1.40771351886343       -4.24297438200000     
   1.41496977411531       -4.24716966400000     
   1.42222602936718       -4.25127892900000     
   1.42948228461905       -4.25530198500000     
   1.43673853987093       -4.25923862600000     
   1.44399479512280       -4.26308862600000     
   1.45125105037467       -4.26685174400000     
   1.45850730562655       -4.27052771700000     
   1.46576356087842       -4.27411627000000     
   1.47301981613029       -4.27761710700000     
   1.48027607138217       -4.28102991400000     
   1.48753232663404       -4.28435435900000     
   1.49478858188591       -4.28759009500000     
   1.50204483713779       -4.29073675200000     
   1.50930109238966       -4.29379394600000     
   1.51655734764153       -4.29676128000000     
   1.52381360289341       -4.29963838400000     
   1.53106985814528       -4.30242495000000     
   1.53832611339715       -4.30512073000000     
   1.54558236864903       -4.30772552900000     
   1.55283862390090       -4.31023920600000     
   1.56009487915277       -4.31266167000000     
   1.56735113440465       -4.31499287700000     
   1.57460738965652       -4.31723282800000     
   1.58186364490839       -4.31938156500000     
   1.58911990016027       -4.32143917300000     
   1.59637615541214       -4.32340576700000     
   1.60363241066401       -4.32528150400000     
   1.61088866591589       -4.32706657100000     
   1.61814492116776       -4.32876118200000     
   1.62540117641963       -4.33036558300000     
   1.63265743167151       -4.33188004400000     
   1.63991368692338       -4.33330486100000     
   1.64716994217525       -4.33464034600000     
   1.65442619742713       -4.33588683700000     
   1.66168245267900       -4.33704468800000     
   1.66893870793087       -4.33811426500000     
   1.67619496318275       -4.33909595200000     
   1.68345121843462       -4.33999014600000     
   1.69070747368649       -4.34079725000000     
   1.69796372893837       -4.34151767900000     
   1.70521998419024       -4.34215185600000     
   1.71247623944211       -4.34270020500000     
   1.71973249469399       -4.34316315800000     
   1.72698874994586       -4.34354114900000     
   1.73424500519773       -4.34383460700000     
   1.74150126044961       -4.34404396800000     
   1.74875751570148       -4.34416966000000     
   1.75601377095335       -4.34421211100000     
   1.76327002620523       -4.34417174000000     
   1.77052628145710       -4.34404896300000     
   1.77778253670897       -4.34384418700000     
   1.78503879196085       -4.34355780800000     
   1.79229504721272       -4.34319021400000     
   1.79955130246459       -4.34274178100000     
   1.80680755771647       -4.34221286900000     
   1.81406381296834       -4.34160382800000     
   1.82132006822021       -4.34091499200000     
   1.82857632347209       -4.34014667600000     
   1.83583257872396       -4.33929917900000     
   1.84308883397583       -4.33837278400000     
   1.85034508922771       -4.33736775200000     
   1.85760134447958       -4.33628432300000     
   1.86485759973145       -4.33512271600000     
   1.87211385498333       -4.33388313100000     
   1.87937011023520       -4.33256573900000     
   1.88662636548707       -4.33117069100000     
   1.89388262073895       -4.32969811400000     
   1.90113887599082       -4.32814810500000     
   1.90839513124269       -4.32652073800000     
   1.91565138649457       -4.32481606100000     
   1.92290764174644       -4.32303409000000     
   1.93016389699831       -4.32117481700000     
   1.93742015225019       -4.31923820300000     
   1.94467640750206       -4.31722418200000     
   1.95193266275393       -4.31513265500000     
   1.95918891800581       -4.31296349600000     
   1.96644517325768       -4.31071654600000     
   1.97370142850955       -4.30839161700000     
   1.98095768376143       -4.30598848900000     
   1.98821393901330       -4.30350691200000     
   1.99547019426517       -4.30094660400000     
   2.00272644951705       -4.29830725200000     
   2.00998270476892       -4.29558851300000     
   2.01723896002079       -4.29279001000000     
   2.02449521527267       -4.28991133800000     
   2.03175147052454       -4.28695206200000     
   2.03900772577641       -4.28391171600000     
   2.04626398102829       -4.28078980400000     
   2.05352023628016       -4.27758580100000     
   2.06077649153203       -4.27429915700000     
   2.06803274678391       -4.27092929100000     
   2.07528900203578       -4.26747559900000     
   2.08254525728765       -4.26393745300000     
   2.08980151253953       -4.26031419800000     
   2.09705776779140       -4.25660516200000     
   2.10431402304327       -4.25280965100000     
   2.11157027829515       -4.24892695300000     
   2.11882653354702       -4.24495634300000     
   2.12608278879889       -4.24089708300000     
   2.13333904405077       -4.23674842300000     
   2.14059529930264       -4.23250961100000     
   2.14785155455451       -4.22817989200000     
   2.15510780980639       -4.22375851500000     
   2.16236406505826       -4.21924473300000     
   2.16962032031013       -4.21463781600000     
   2.17687657556201       -4.20993705400000     
   2.18413283081388       -4.20514176300000     
   2.19138908606575       -4.20025129700000     
   2.19864534131763       -4.19526505900000     
   2.20590159656950       -4.19018250600000     
   2.21315785182138       -4.18500317300000     
   2.22041410707325       -4.17972668500000     
   2.22767036232512       -4.17435277300000     
   2.23492661757700       -4.16888130900000     
   2.24218287282887       -4.16331232700000     
   2.24943912808074       -4.15764607100000     
   2.25669538333262       -4.15188303600000     
   2.26395163858449       -4.14602404400000     
   2.27120789383636       -4.14007033200000     
   2.27846414908824       -4.13402368400000     
   2.28572040434011       -4.12788664000000     
   2.29297665959198       -4.12166283000000     
   2.30023291484386       -4.11535760100000     
   2.30748917009573       -4.10897964000000     
   2.31474542534760       -4.10256518700000     
   2.32200168059948       -4.09617318600000     
   2.32925793585135       -4.08980544100000     
   2.33651419110322       -4.08346049800000     
   2.34377044635510       -4.07713685700000     
   2.35102670160697       -4.07083297200000     
   2.35828295685884       -4.06454725900000     
   2.36553921211072       -4.05827808900000     
   2.37279546736259       -4.05202379200000     
   2.38005172261446       -4.04578266100000     
   2.38730797786634       -4.03955295000000     
   2.39456423311821       -4.03333287200000     
   2.40182048837008       -4.02712061100000     
   2.40907674362196       -4.02091431200000     
   2.41633299887383       -4.01471208800000     
   2.42358925412570       -4.00851202300000     
   2.43084550937758       -4.00231217100000     
   2.43810176462945       -3.99611055700000     
   2.44535801988132       -3.98990518100000     
   2.45261427513320       -3.98369401900000     
   2.45987053038507       -3.97747502700000     
   2.46712678563694       -3.97124613800000     
   2.47438304088882       -3.96500527000000     
   2.48163929614069       -3.95875032400000     
   2.48889555139256       -3.95247918900000     
   2.49615180664444       -3.94618974100000     
   2.50340806189631       -3.93987985300000     
   2.51066431714818       -3.93354738500000     
   2.51792057240006       -3.92719020000000     
   2.52517682765193       -3.92080615800000     
   2.53243308290380       -3.91439312300000     
   2.53968933815568       -3.90794896300000     
   2.54694559340755       -3.90147155600000     
   2.55420184865942       -3.89495879200000     
   2.56145810391130       -3.88840857400000     
   2.56871435916317       -3.88181882400000     
   2.57597061441504       -3.87518748800000     
   2.58322686966692       -3.86851253400000     
   2.59048312491879       -3.86179197000000     
   2.59773938017066       -3.85502398400000     
   2.60499563542254       -3.84820712600000     
   2.61225189067441       -3.84134032800000     
   2.61950814592628       -3.83442290200000     
   2.62676440117816       -3.82745452700000     
   2.63402065643003       -3.82043525600000     
   2.64127691168190       -3.81336550300000     
   2.64853316693378       -3.80624604400000     
   2.65578942218565       -3.79907800500000     
   2.66304567743752       -3.79186286700000     
   2.67030193268940       -3.78460245800000     
   2.67755818794127       -3.77729894400000     
   2.68481444319314       -3.76995483000000     
   2.69207069844502       -3.76257295500000     
   2.69932695369689       -3.75515648200000     
   2.70658320894876       -3.74770890100000     
   2.71383946420064       -3.74023402000000     
   2.72109571945251       -3.73273595600000     
   2.72835197470438       -3.72521913700000     
   2.73560822995626       -3.71768829300000     
   2.74286448520813       -3.71014845200000     
   2.75012074046000       -3.70260493100000     
   2.75737699571188       -3.69506333200000     
   2.76463325096375       -3.68752954100000     
   2.77188950621562       -3.68000971200000     
   2.77914576146750       -3.67251026600000     
   2.78640201671937       -3.66503789000000     
   2.79365827197124       -3.65759951500000     
   2.80091452722312       -3.65020232500000     
   2.80817078247499       -3.64285374300000     
   2.81542703772686       -3.63556141900000     
   2.82268329297874       -3.62833323000000     
   2.82993954823061       -3.62117726800000     
   2.83719580348248       -3.61410183600000     
   2.84445205873436       -3.60711543300000     
   2.85170831398623       -3.60022680000000     
   2.85896456923810       -3.59344498600000     
   2.86622082448998       -3.58677935200000     
   2.87347707974185       -3.58023944200000     
   2.88073333499372       -3.57383467000000     
   2.88798959024560       -3.56757422100000     
   2.89524584549747       -3.56146704400000     
   2.90250210074934       -3.55552183600000     
   2.90975835600122       -3.54974702200000     
   2.91701461125309       -3.54415075700000     
