# ADP potential Cu-Ta 
# A. Hashibon, A. Y. Lozovoi, Y. Mishin, C. Elsässer and P. Gumbsch,
# Interatomic Potential for the Cu-Ta System and its Application 
# to Surface Wetting and Dewetting, Phys. Rev. B 77, 094131 (2008)
# Pair interaction Cu-Cu
#  Distance (Angstr.)       Energy (eV)
  0.501668928666659        1392.66248900000     
  0.503337857333318        1379.41661100000     
  0.505006785999976        1366.30502300000     
  0.506675714666635        1353.32633200000     
  0.508344643333294        1340.47915500000     
  0.510013571999953        1327.76212900000     
  0.511682500666611        1315.17390100000     
  0.513351429333270        1302.71313000000     
  0.515020357999929        1290.37849400000     
  0.516689286666588        1278.16868300000     
  0.518358215333247        1266.08239600000     
  0.520027143999905        1254.11835000000     
  0.521696072666564        1242.27527400000     
  0.523365001333223        1230.55190900000     
  0.525033929999882        1218.94701100000     
  0.526702858666540        1207.45934500000     
  0.528371787333199        1196.08769300000     
  0.530040715999858        1184.83084700000     
  0.531709644666517        1173.68761100000     
  0.533378573333176        1162.65680300000     
  0.535047501999834        1151.73725200000     
  0.536716430666493        1140.92780000000     
  0.538385359333152        1130.22729800000     
  0.540054287999811        1119.63461300000     
  0.541723216666469        1109.14862100000     
  0.543392145333128        1098.76821100000     
  0.545061073999787        1088.49228000000     
  0.546730002666446        1078.31974200000     
  0.548398931333104        1068.24951700000     
  0.550067859999763        1058.28053900000     
  0.551736788666422        1048.41175200000     
  0.553405717333081        1038.64211100000     
  0.555074645999740        1028.97058200000     
  0.556743574666398        1019.39614100000     
  0.558412503333057        1009.91777400000     
  0.560081431999716        1000.53448100000     
  0.561750360666375        991.245268100000     
  0.563419289333033        982.049153600000     
  0.565088217999692        972.945165800000     
  0.566757146666351        963.932342600000     
  0.568426075333010        955.009732200000     
  0.570095003999669        946.176392600000     
  0.571763932666327        937.431391400000     
  0.573432861332986        928.773806000000     
  0.575101789999645        920.202723200000     
  0.576770718666304        911.717239200000     
  0.578439647332962        903.316459800000     
  0.580108575999621        894.999500000000     
  0.581777504666280        886.765483400000     
  0.583446433332939        878.613543800000     
  0.585115361999597        870.542822700000     
  0.586784290666256        862.552471700000     
  0.588453219332915        854.641650200000     
  0.590122147999574        846.809526900000     
  0.591791076666233        839.055279000000     
  0.593460005332891        831.378092200000     
  0.595128933999550        823.777160600000     
  0.596797862666209        816.251686900000     
  0.598466791332868        808.800881800000     
  0.600135719999526        801.423964400000     
  0.601804648666185        794.120161900000     
  0.603473577332844        786.888709400000     
  0.605142505999503        779.728850200000     
  0.606811434666161        772.639835300000     
  0.608480363332820        765.620923600000     
  0.610149291999479        758.671381600000     
  0.611818220666138        751.790483500000     
  0.613487149332797        744.977511200000     
  0.615156077999455        738.231754000000     
  0.616825006666114        731.552508500000     
  0.618493935332773        724.939078900000     
  0.620162863999432        718.390776400000     
  0.621831792666090        711.906919600000     
  0.623500721332749        705.486834100000     
  0.625169649999408        699.129852700000     
  0.626838578666067        692.835315000000     
  0.628507507332726        686.602567700000     
  0.630176435999384        680.430964100000     
  0.631845364666043        674.319864500000     
  0.633514293332702        668.268635900000     
  0.635183221999361        662.276651800000     
  0.636852150666019        656.343292200000     
  0.638521079332678        650.467944000000     
  0.640190007999337        644.650000100000     
  0.641858936665996        638.888860100000     
  0.643527865332655        633.183929500000     
  0.645196793999313        627.534620700000     
  0.646865722665972        621.940351700000     
  0.648534651332631        616.400546800000     
  0.650203579999290        610.914636500000     
  0.651872508665948        605.482057000000     
  0.653541437332607        600.102250800000     
  0.655210365999266        594.774666200000     
  0.656879294665925        589.498756900000     
  0.658548223332583        584.273982900000     
  0.660217151999242        579.099809600000     
  0.661886080665901        573.975708300000     
  0.663555009332560        568.901155500000     
  0.665223937999219        563.875633500000     
  0.666892866665877        558.898630000000     
  0.668561795332536        553.969638400000     
  0.670230723999195        549.088156900000     
  0.671899652665854        544.253689600000     
  0.673568581332513        539.465745300000     
  0.675237509999171        534.723838400000     
  0.676906438665830        530.027488300000     
  0.678575367332489        525.376219600000     
  0.680244295999148        520.769561900000     
  0.681913224665806        516.207049600000     
  0.683582153332465        511.688222500000     
  0.685251081999124        507.212624700000     
  0.686920010665783        502.779805600000     
  0.688588939332441        498.389319200000     
  0.690257867999100        494.040724500000     
  0.691926796665759        489.733584700000     
  0.693595725332418        485.467468100000     
  0.695264653999077        481.241947400000     
  0.696933582665735        477.056600000000     
  0.698602511332394        472.911007700000     
  0.700271439999053        468.804756700000     
  0.701940368665712        464.737437700000     
  0.703609297332370        460.708645800000     
  0.705278225999029        456.717980500000     
  0.706947154665688        452.765045300000     
  0.708616083332347        448.849448200000     
  0.710285011999006        444.970801400000     
  0.711953940665664        441.128721100000     
  0.713622869332323        437.322827800000     
  0.715291797998982        433.552745800000     
  0.716960726665641        429.818103600000     
  0.718629655332299        426.118533800000     
  0.720298583998958        422.453672800000     
  0.721967512665617        418.823160700000     
  0.723636441332276        415.226642100000     
  0.725305369998934        411.663764600000     
  0.726974298665593        408.134180200000     
  0.728643227332252        404.637544500000     
  0.730312155998911        401.173516700000     
  0.731981084665570        397.741759800000     
  0.733650013332228        394.341940200000     
  0.735318941998887        390.973728300000     
  0.736987870665546        387.636797600000     
  0.738656799332205        384.330825400000     
  0.740325727998863        381.055492500000     
  0.741994656665522        377.810483100000     
  0.743663585332181        374.595484600000     
  0.745332513998840        371.410188200000     
  0.747001442665499        368.254288100000     
  0.748670371332157        365.127482000000     
  0.750339299998816        362.029470600000     
  0.752008228665475        358.959958300000     
  0.753677157332134        355.918652300000     
  0.755346085998792        352.905263300000     
  0.757015014665451        349.919504600000     
  0.758683943332110        346.961093400000     
  0.760352871998769        344.029749300000     
  0.762021800665427        341.125195300000     
  0.763690729332086        338.247157200000     
  0.765359657998745        335.395364000000     
  0.767028586665404        332.569547600000     
  0.768697515332063        329.769442500000     
  0.770366443998721        326.994786700000     
  0.772035372665380        324.245320400000     
  0.773704301332039        321.520787200000     
  0.775373229998698        318.820933000000     
  0.777042158665356        316.145507000000     
  0.778711087332015        313.494260600000     
  0.780380015998674        310.866948300000     
  0.782048944665333        308.263327200000     
  0.783717873331992        305.683156800000     
  0.785386801998650        303.126199700000     
  0.787055730665309        300.592220700000     
  0.788724659331968        298.080987200000     
  0.790393587998627        295.592269600000     
  0.792062516665285        293.125840300000     
  0.793731445331944        290.681474300000     
  0.795400373998603        288.258949100000     
  0.797069302665262        285.858044900000     
  0.798738231331920        283.478544000000     
  0.800407159998579        281.120231200000     
  0.802076088665238        278.782893600000     
  0.803745017331897        276.466320700000     
  0.805413945998556        274.170304500000     
  0.807082874665214        271.894638800000     
  0.808751803331873        269.639120300000     
  0.810420731998532        267.403547400000     
  0.812089660665191        265.187720800000     
  0.813758589331850        262.991443800000     
  0.815427517998508        260.814521500000     
  0.817096446665167        258.656761300000     
  0.818765375331826        256.517972500000     
  0.820434303998484        254.397966900000     
  0.822103232665143        252.296557900000     
  0.823772161331802        250.213561500000     
  0.825441089998461        248.148795200000     
  0.827110018665120        246.102078800000     
  0.828778947331778        244.073234200000     
  0.830447875998437        242.062085000000     
  0.832116804665096        240.068456900000     
  0.833785733331755        238.092177500000     
  0.835454661998414        236.133076400000     
  0.837123590665072        234.190984900000     
  0.838792519331731        232.265736300000     
  0.840461447998390        230.357165900000     
  0.842130376665049        228.465110200000     
  0.843799305331707        226.589408500000     
  0.845468233998366        224.729900800000     
  0.847137162665025        222.886429900000     
  0.848806091331684        221.058839500000     
  0.850475019998342        219.246975600000     
  0.852143948665001        217.450685700000     
  0.853812877331660        215.669818800000     
  0.855481805998319        213.904225900000     
  0.857150734664978        212.153759700000     
  0.858819663331636        210.418274100000     
  0.860488591998295        208.697624900000     
  0.862157520664954        206.991669600000     
  0.863826449331613        205.300267200000     
  0.865495377998271        203.623278100000     
  0.867164306664930        201.960564600000     
  0.868833235331589        200.311990100000     
  0.870502163998248        198.677419900000     
  0.872171092664907        197.056720600000     
  0.873840021331565        195.449760200000     
  0.875508949998224        193.856408500000     
  0.877177878664883        192.276536400000     
  0.878846807331542        190.710016400000     
  0.880515735998200        189.156722400000     
  0.882184664664859        187.616529800000     
  0.883853593331518        186.089315100000     
  0.885522521998177        184.574956500000     
  0.887191450664836        183.073333400000     
  0.888860379331494        181.584326500000     
  0.890529307998153        180.107817800000     
  0.892198236664812        178.643690800000     
  0.893867165331471        177.191830300000     
  0.895536093998129        175.752122100000     
  0.897205022664788        174.324453400000     
  0.898873951331447        172.908712800000     
  0.900542879998106        171.504790100000     
  0.902211808664764        170.112576100000     
  0.903880737331423        168.731962900000     
  0.905549665998082        167.362844100000     
  0.907218594664741        166.005114100000     
  0.908887523331400        164.658668600000     
  0.910556451998058        163.323404500000     
  0.912225380664717        161.999220000000     
  0.913894309331376        160.686013900000     
  0.915563237998035        159.383686600000     
  0.917232166664693        158.092139600000     
  0.918901095331352        156.811275400000     
  0.920570023998011        155.540997300000     
  0.922238952664670        154.281209900000     
  0.923907881331329        153.031819000000     
  0.925576809997987        151.792731300000     
  0.927245738664646        150.563854600000     
  0.928914667331305        149.345097500000     
  0.930583595997964        148.136369800000     
  0.932252524664622        146.937582300000     
  0.933921453331281        145.748646700000     
  0.935590381997940        144.569475700000     
  0.937259310664599        143.399982900000     
  0.938928239331257        142.240083000000     
  0.940597167997916        141.089691500000     
  0.942266096664575        139.948725100000     
  0.943935025331234        138.817100900000     
  0.945603953997893        137.694737200000     
  0.947272882664551        136.581553300000     
  0.948941811331210        135.477469400000     
  0.950610739997869        134.382406200000     
  0.952279668664528        133.296285600000     
  0.953948597331186        132.219030300000     
  0.955617525997845        131.150563800000     
  0.957286454664504        130.090810300000     
  0.958955383331163        129.039695100000     
  0.960624311997822        127.997144100000     
  0.962293240664480        126.963084100000     
  0.963962169331139        125.937442500000     
  0.965631097997798        124.920147800000     
  0.967300026664457        123.911129100000     
  0.968968955331115        122.910316200000     
  0.970637883997774        121.917639700000     
  0.972306812664433        120.933031000000     
  0.973975741331092        119.956422400000     
  0.975644669997751        118.987746300000     
  0.977313598664409        118.026936600000     
  0.978982527331068        117.073927500000     
  0.980651455997727        116.128653700000     
  0.982320384664386        115.191051100000     
  0.983989313331044        114.261055900000     
  0.985658241997703        113.338605100000     
  0.987327170664362        112.423636400000     
  0.988996099331021        111.516088000000     
  0.990665027997679        110.615899000000     
  0.992333956664338        109.723009000000     
  0.994002885330997        108.837358100000     
  0.995671813997656        107.958887200000     
  0.997340742664315        107.087537700000     
  0.999009671330973        106.223251700000     
   1.00067859999763        105.365972000000     
   1.00234752866429        104.515641700000     
   1.00401645733095        103.672204800000     
   1.00568538599761        102.835605400000     
   1.00735431466427        102.005788800000     
   1.00902324333093        101.182700500000     
   1.01069217199758        100.366286400000     
   1.01236110066424        99.5564933000000     
   1.01403002933090        98.7532683500000     
   1.01569895799756        97.9565592500000     
   1.01736788666422        97.1663142400000     
   1.01903681533088        96.3824820500000     
   1.02070574399754        95.6050119500000     
   1.02237467266420        94.8338537000000     
   1.02404360133085        94.0689575500000     
   1.02571252999751        93.3102742600000     
   1.02738145866417        92.5577550400000     
   1.02905038733083        91.8113515900000     
   1.03071931599749        91.0710160900000     
   1.03238824466415        90.3367011700000     
   1.03405717333081        89.6083599300000     
   1.03572610199747        88.8859458800000     
   1.03739503066413        88.1694130200000     
   1.03906395933078        87.4587157600000     
   1.04073288799744        86.7538089400000     
   1.04240181666410        86.0546478500000     
   1.04407074533076        85.3611881500000     
   1.04573967399742        84.6733859700000     
   1.04740860266408        83.9911978000000     
   1.04907753133074        83.3145805400000     
   1.05074645999740        82.6434914900000     
   1.05241538866405        81.9778883600000     
   1.05408431733071        81.3177291900000     
   1.05575324599737        80.6629724500000     
   1.05742217466403        80.0135769300000     
   1.05909110333069        79.3695018300000     
   1.06076003199735        78.7307066900000     
   1.06242896066401        78.0971514200000     
   1.06409788933067        77.4687962400000     
   1.06576681799732        76.8456017500000     
   1.06743574666398        76.2275288700000     
   1.06910467533064        75.6145388700000     
   1.07077360399730        75.0065933300000     
   1.07244253266396        74.4036541500000     
   1.07411146133062        73.8056835600000     
   1.07578038999728        73.2126441000000     
   1.07744931866394        72.6244986200000     
   1.07911824733059        72.0412102400000     
   1.08078717599725        71.4627424400000     
   1.08245610466391        70.8890589200000     
   1.08412503333057        70.3201237200000     
   1.08579396199723        69.7559011400000     
   1.08746289066389        69.1963557600000     
   1.08913181933055        68.6414524400000     
   1.09080074799721        68.0911562900000     
   1.09246967666386        67.5454327000000     
   1.09413860533052        67.0042473300000     
   1.09580753399718        66.4675660600000     
   1.09747646266384        65.9353550400000     
   1.09914539133050        65.4075806700000     
   1.10081431999716        64.8842095900000     
   1.10248324866382        64.3652086700000     
   1.10415217733048        63.8505450000000     
   1.10582110599713        63.3401859200000     
   1.10749003466379        62.8340990100000     
   1.10915896333045        62.3322520100000     
   1.11082789199711        61.8346129200000     
   1.11249682066377        61.3411499500000     
   1.11416574933043        60.8518315100000     
   1.11583467799709        60.3666262100000     
   1.11750360666375        59.8855028600000     
   1.11917253533041        59.4084304600000     
   1.12084146399706        58.9353782200000     
   1.12251039266372        58.4663155200000     
   1.12417932133038        58.0012119200000     
   1.12584824999704        57.5400371800000     
   1.12751717866370        57.0827612300000     
   1.12918610733036        56.6293541500000     
   1.13085503599702        56.1797862100000     
   1.13252396466368        55.7340278500000     
   1.13419289333033        55.2920496400000     
   1.13586182199699        54.8538223400000     
   1.13753075066365        54.4193168600000     
   1.13919967933031        53.9885042300000     
   1.14086860799697        53.5613556800000     
   1.14253753666363        53.1378425200000     
   1.14420646533029        52.7179362600000     
   1.14587539399695        52.3016085000000     
   1.14754432266360        51.8888310000000     
   1.14921325133026        51.4795756400000     
   1.15088217999692        51.0738144400000     
   1.15255110866358        50.6715195100000     
   1.15422003733024        50.2726631300000     
   1.15588896599690        49.8772176400000     
   1.15755789466356        49.4851555500000     
   1.15922682333022        49.0964494300000     
   1.16089575199687        48.7110719900000     
   1.16256468066353        48.3289960300000     
   1.16423360933019        47.9501944700000     
   1.16590253799685        47.5746403100000     
   1.16757146666351        47.2023066400000     
   1.16924039533017        46.8331666600000     
   1.17090932399683        46.4671936500000     
