# Pair interaction Fe-Fe
#  Distance (Angstr.)       Energy (eV)
   1.50118494266664        81.8259297900000     
   1.50236988533328        81.1895109900000     
   1.50355482799992        80.5581338800000     
   1.50473977066655        79.9317560500000     
   1.50592471333319        79.3103354700000     
   1.50710965599983        78.6938305200000     
   1.50829459866647        78.0821999400000     
   1.50947954133311        77.4754028300000     
   1.51066448399975        76.8733987200000     
   1.51184942666639        76.2761474300000     
   1.51303436933302        75.6836091900000     
   1.51421931199966        75.0957445900000     
   1.51540425466630        74.5125145700000     
   1.51658919733294        73.9338804100000     
   1.51777413999958        73.3598037600000     
   1.51895908266622        72.7902466100000     
   1.52014402533286        72.2251712900000     
   1.52132896799949        71.6645404600000     
   1.52251391066613        71.1083171400000     
   1.52369885333277        70.5564646600000     
   1.52488379599941        70.0089467100000     
   1.52606873866605        69.4657272800000     
   1.52725368133269        68.9267706800000     
   1.52843862399932        68.3920415600000     
   1.52962356666596        67.8615048800000     
   1.53080850933260        67.3351259100000     
   1.53199345199924        66.8128702300000     
   1.53317839466588        66.2947037600000     
   1.53436333733252        65.7805926600000     
   1.53554827999916        65.2705034600000     
   1.53673322266579        64.7644029400000     
   1.53791816533243        64.2622582100000     
   1.53910310799907        63.7640366500000     
   1.54028805066571        63.2697059600000     
   1.54147299333235        62.7792340800000     
   1.54265793599899        62.2925892900000     
   1.54384287866563        61.8097401000000     
   1.54502782133226        61.3306553500000     
   1.54621276399890        60.8553041300000     
   1.54739770666554        60.3836558000000     
   1.54858264933218        59.9156799900000     
   1.54976759199882        59.4513466300000     
   1.55095253466546        58.9906258900000     
   1.55213747733210        58.5334882000000     
   1.55332241999873        58.0799042700000     
   1.55450736266537        57.6298450500000     
   1.55569230533201        57.1832817800000     
   1.55687724799865        56.7401859000000     
   1.55806219066529        56.3005291500000     
   1.55924713333193        55.8642835100000     
   1.56043207599857        55.4314211700000     
   1.56161701866520        55.0019146300000     
   1.56280196133184        54.5757365700000     
   1.56398690399848        54.1528599300000     
   1.56517184666512        53.7332579200000     
   1.56635678933176        53.3169039300000     
   1.56754173199840        52.9037716400000     
   1.56872667466504        52.4938349200000     
   1.56991161733167        52.0870678600000     
   1.57109655999831        51.6834448400000     
   1.57228150266495        51.2829403800000     
   1.57346644533159        50.8855293000000     
   1.57465138799823        50.4911865900000     
   1.57583633066487        50.0998874700000     
   1.57702127333151        49.7116073800000     
   1.57820621599814        49.3263219800000     
   1.57939115866478        48.9440071400000     
   1.58057610133142        48.5646389200000     
   1.58176104399806        48.1881936100000     
   1.58294598666470        47.8146477100000     
   1.58413092933134        47.4439779000000     
   1.58531587199797        47.0761610900000     
   1.58650081466461        46.7111743600000     
   1.58768575733125        46.3489950100000     
   1.58887069999789        45.9896005500000     
   1.59005564266453        45.6329686500000     
   1.59124058533117        45.2790771900000     
   1.59242552799781        44.9279042400000     
   1.59361047066444        44.5794280600000     
   1.59479541333108        44.2336271000000     
   1.59598035599772        43.8904800000000     
   1.59716529866436        43.5499655800000     
   1.59835024133100        43.2120628200000     
   1.59953518399764        42.8767509200000     
   1.60072012666428        42.5440092300000     
   1.60190506933091        42.2138173000000     
   1.60309001199755        41.8861548200000     
   1.60427495466419        41.5610017000000     
   1.60545989733083        41.2383379900000     
   1.60664483999747        40.9181439100000     
   1.60782978266411        40.6003998800000     
   1.60901472533075        40.2850864500000     
   1.61019966799738        39.9721843700000     
   1.61138461066402        39.6616745300000     
   1.61256955333066        39.3535379900000     
   1.61375449599730        39.0477559600000     
   1.61493943866394        38.7443098500000     
   1.61612438133058        38.4431811800000     
   1.61730932399722        38.1443516600000     
   1.61849426666385        37.8478031500000     
   1.61967920933049        37.5535176400000     
   1.62086415199713        37.2614773000000     
   1.62204909466377        36.9716644500000     
   1.62323403733041        36.6840615500000     
   1.62441897999705        36.3986512000000     
   1.62560392266369        36.1154161800000     
   1.62678886533032        35.8343393700000     
   1.62797380799696        35.5554038500000     
   1.62915875066360        35.2785927900000     
   1.63034369333024        35.0038895300000     
   1.63152863599688        34.7312775400000     
   1.63271357866352        34.4607404500000     
   1.63389852133015        34.1922620000000     
   1.63508346399679        33.9258260900000     
   1.63626840666343        33.6614167400000     
   1.63745334933007        33.3990181100000     
   1.63863829199671        33.1386145000000     
   1.63982323466335        32.8801903200000     
   1.64100817732999        32.6237301300000     
   1.64219311999662        32.3692186400000     
   1.64337806266326        32.1166406300000     
   1.64456300532990        31.8659810600000     
   1.64574794799654        31.6172249900000     
   1.64693289066318        31.3703576100000     
   1.64811783332982        31.1253642400000     
   1.64930277599646        30.8822303300000     
   1.65048771866309        30.6409414100000     
   1.65167266132973        30.4014832000000     
   1.65285760399637        30.1638414600000     
   1.65404254666301        29.9280021400000     
   1.65522748932965        29.6939512500000     
   1.65641243199629        29.4616749600000     
   1.65759737466293        29.2311595200000     
   1.65878231732956        29.0023913300000     
   1.65996725999620        28.7753568700000     
   1.66115220266284        28.5500427500000     
   1.66233714532948        28.3264356800000     
   1.66352208799612        28.1045224900000     
   1.66470703066276        27.8842901200000     
   1.66589197332940        27.6657256200000     
   1.66707691599603        27.4488161200000     
   1.66826185866267        27.2335488900000     
   1.66944680132931        27.0199112900000     
   1.67063174399595        26.8078907900000     
   1.67181668666259        26.5974749600000     
   1.67300162932923        26.3886514600000     
   1.67418657199587        26.1814080700000     
   1.67537151466250        25.9757326700000     
   1.67655645732914        25.7716132200000     
   1.67774139999578        25.5690378100000     
   1.67892634266242        25.3679946000000     
   1.68011128532906        25.1684718500000     
   1.68129622799570        24.9704579300000     
   1.68248117066233        24.7739413000000     
   1.68366611332897        24.5789105200000     
   1.68485105599561        24.3853542200000     
   1.68603599866225        24.1932611500000     
   1.68722094132889        24.0026201400000     
   1.68840588399553        23.8134201100000     
   1.68959082666217        23.6256500800000     
   1.69077576932880        23.4392991400000     
   1.69196071199544        23.2543564800000     
   1.69314565466208        23.0708114000000     
   1.69433059732872        22.8886532300000     
   1.69551553999536        22.7078714600000     
   1.69670048266200        22.5284556100000     
   1.69788542532864        22.3503953000000     
   1.69907036799527        22.1736802500000     
   1.70025531066191        21.9983002300000     
   1.70144025332855        21.8242451300000     
   1.70262519599519        21.6515049000000     
   1.70381013866183        21.4800695700000     
   1.70499508132847        21.3099292600000     
   1.70618002399511        21.1410741800000     
   1.70736496666174        20.9734945900000     
   1.70854990932838        20.8071808500000     
   1.70973485199502        20.6421233900000     
   1.71091979466166        20.4783127100000     
   1.71210473732830        20.3157393900000     
   1.71328967999494        20.1543941200000     
   1.71447462266158        19.9942676200000     
   1.71565956532821        19.8353506900000     
   1.71684450799485        19.6776342200000     
   1.71802945066149        19.5211091700000     
   1.71921439332813        19.3657665800000     
   1.72039933599477        19.2115975200000     
   1.72158427866141        19.0585931800000     
   1.72276922132805        18.9067448200000     
   1.72395416399468        18.7560437200000     
   1.72513910666132        18.6064812800000     
   1.72632404932796        18.4580489500000     
   1.72750899199460        18.3107382400000     
   1.72869393466124        18.1645407400000     
   1.72987887732788        18.0194481100000     
   1.73106381999452        17.8754520600000     
   1.73224876266115        17.7325443800000     
   1.73343370532779        17.5907169200000     
   1.73461864799443        17.4499616000000     
   1.73580359066107        17.3102703800000     
   1.73698853332771        17.1716353200000     
   1.73817347599435        17.0340485300000     
   1.73935841866098        16.8975021600000     
   1.74054336132762        16.7619884600000     
   1.74172830399426        16.6274997000000     
   1.74291324666090        16.4940282600000     
   1.74409818932754        16.3615665300000     
   1.74528313199418        16.2301069800000     
   1.74646807466082        16.0996421600000     
   1.74765301732745        15.9701646400000     
   1.74883795999409        15.8416670900000     
   1.75002290266073        15.7141422000000     
   1.75120784532737        15.5875827400000     
   1.75239278799401        15.4619815300000     
   1.75357773066065        15.3373314600000     
   1.75476267332729        15.2136254300000     
   1.75594761599392        15.0908564600000     
   1.75713255866056        14.9690175800000     
   1.75831750132720        14.8481018700000     
   1.75950244399384        14.7281025100000     
   1.76068738666048        14.6090127000000     
   1.76187232932712        14.4908257000000     
   1.76305727199376        14.3735347900000     
   1.76424221466039        14.2571333700000     
   1.76542715732703        14.1416148200000     
   1.76661209999367        14.0269726500000     
   1.76779704266031        13.9132003300000     
   1.76898198532695        13.8002914500000     
   1.77016692799359        13.6882396200000     
   1.77135187066023        13.5770385100000     
   1.77253681332686        13.4666818300000     
   1.77372175599350        13.3571633600000     
   1.77490669866014        13.2484768900000     
   1.77609164132678        13.1406162800000     
   1.77727658399342        13.0335754600000     
   1.77846152666006        12.9273483600000     
   1.77964646932669        12.8219290000000     
   1.78083141199333        12.7173114100000     
   1.78201635465997        12.6134897000000     
   1.78320129732661        12.5104580000000     
   1.78438623999325        12.4082104900000     
   1.78557118265989        12.3067414000000     
   1.78675612532653        12.2060450100000     
   1.78794106799316        12.1061156200000     
   1.78912601065980        12.0069476200000     
   1.79031095332644        11.9085353900000     
   1.79149589599308        11.8108733700000     
   1.79268083865972        11.7139560900000     
   1.79386578132636        11.6177780200000     
   1.79505072399300        11.5223337800000     
   1.79623566665963        11.4276179800000     
   1.79742060932627        11.3336252500000     
   1.79860555199291        11.2403503100000     
   1.79979049465955        11.1477878800000     
   1.80097543732619        11.0559327500000     
   1.80216037999283        10.9647797300000     
   1.80334532265947        10.8743236900000     
   1.80453026532610        10.7845595000000     
   1.80571520799274        10.6954821100000     
   1.80690015065938        10.6070864900000     
   1.80808509332602        10.5193676500000     
   1.80927003599266        10.4323206300000     
   1.81045497865930        10.3459405300000     
   1.81163992132594        10.2602224700000     
   1.81282486399257        10.1751616000000     
   1.81400980665921        10.0907531200000     
   1.81519474932585        10.0069922700000     
   1.81637969199249        9.92387431800000     
   1.81756463465913        9.84139456000000     
   1.81874957732577        9.75954833900000     
   1.81993451999241        9.67833103100000     
   1.82111946265904        9.59773804500000     
   1.82230440532568        9.51776482400000     
   1.82348934799232        9.43840684800000     
   1.82467429065896        9.35965962900000     
   1.82585923332560        9.28151871100000     
   1.82704417599224        9.20397967500000     
   1.82822911865888        9.12703813300000     
   1.82941406132551        9.05068973000000     
   1.83059900399215        8.97493014500000     
   1.83178394665879        8.89975508600000     
   1.83296888932543        8.82516029600000     
   1.83415383199207        8.75114154900000     
   1.83533877465871        8.67769465000000     
   1.83652371732534        8.60481543600000     
   1.83770865999198        8.53249977600000     
   1.83889360265862        8.46074356600000     
   1.84007854532526        8.38954273600000     
   1.84126348799190        8.31889324500000     
   1.84244843065854        8.24879108100000     
   1.84363337332518        8.17923226600000     
   1.84481831599181        8.11021284600000     
   1.84600325865845        8.04172889900000     
   1.84718820132509        7.97377653200000     
   1.84837314399173        7.90635188100000     
   1.84955808665837        7.83945110800000     
   1.85074302932501        7.77307040800000     
   1.85192797199165        7.70720600000000     
   1.85311291465828        7.64185413400000     
   1.85429785732492        7.57701108500000     
   1.85548279999156        7.51267315500000     
   1.85666774265820        7.44883667800000     
   1.85785268532484        7.38549800800000     
   1.85903762799148        7.32265353300000     
   1.86022257065812        7.26029966100000     
   1.86140751332475        7.19843283200000     
   1.86259245599139        7.13704950700000     
   1.86377739865803        7.07614617800000     
   1.86496234132467        7.01571935800000     
   1.86614728399131        6.95576558800000     
   1.86733222665795        6.89628143400000     
   1.86851716932459        6.83726348700000     
   1.86970211199122        6.77870836400000     
   1.87088705465786        6.72061270400000     
   1.87207199732450        6.66297317300000     
   1.87325693999114        6.60578646000000     
   1.87444188265778        6.54904927800000     
   1.87562682532442        6.49275836600000     
   1.87681176799106        6.43691048300000     
   1.87799671065769        6.38150241400000     
   1.87918165332433        6.32653096900000     
   1.88036659599097        6.27199297700000     
   1.88155153865761        6.21788529400000     
   1.88273648132425        6.16420479500000     
   1.88392142399089        6.11094838000000     
   1.88510636665752        6.05811297200000     
   1.88629130932416        6.00569551400000     
   1.88747625199080        5.95369297200000     
   1.88866119465744        5.90210233600000     
   1.88984613732408        5.85092061400000     
   1.89103107999072        5.80014483900000     
   1.89221602265736        5.74977206200000     
   1.89340096532399        5.69979935900000     
   1.89458590799063        5.65022382400000     
   1.89577085065727        5.60104257200000     
   1.89695579332391        5.55225274300000     
   1.89814073599055        5.50385149100000     
   1.89932567865719        5.45583599400000     
   1.90051062132383        5.40820345100000     
   1.90169556399046        5.36095107900000     
   1.90288050665710        5.31407611800000     
   1.90406544932374        5.26757582400000     
   1.90525039199038        5.22144747300000     
   1.90643533465702        5.17568836300000     
   1.90762027732366        5.13029581000000     
   1.90880521999030        5.08526714900000     
   1.90999016265693        5.04059973500000     
   1.91117510532357        4.99629093900000     
   1.91236004799021        4.95233815400000     
   1.91354499065685        4.90873878900000     
   1.91472993332349        4.86549027500000     
   1.91591487599013        4.82259005700000     
   1.91709981865677        4.78003560100000     
   1.91828476132340        4.73782438800000     
   1.91946970399004        4.69595392100000     
   1.92065464665668        4.65442171800000     
   1.92183958932332        4.61322531500000     
   1.92302453198996        4.57236226500000     
   1.92420947465660        4.53183013900000     
   1.92539441732324        4.49162652700000     
   1.92657935998987        4.45174903100000     
   1.92776430265651        4.41219527400000     
   1.92894924532315        4.37296289600000     
   1.93013418798979        4.33404955100000     
   1.93131913065643        4.29545291200000     
   1.93250407332307        4.25717066500000     
   1.93368901598971        4.21920051700000     
   1.93487395865634        4.18154018700000     
   1.93605890132298        4.14418741300000     
   1.93724384398962        4.10713994600000     
   1.93842878665626        4.07039555600000     
   1.93961372932290        4.03395202500000     
   1.94079867198954        3.99780715400000     
   1.94198361465617        3.96195875700000     
   1.94316855732281        3.92640466400000     
   1.94435349998945        3.89114272200000     
   1.94553844265609        3.85617079100000     
   1.94672338532273        3.82148674400000     
   1.94790832798937        3.78708847300000     
   1.94909327065601        3.75297388300000     
   1.95027821332264        3.71914089200000     
   1.95146315598928        3.68558743500000     
   1.95264809865592        3.65231146100000     
   1.95383304132256        3.61931093100000     
   1.95501798398920        3.58658382400000     
   1.95620292665584        3.55412812900000     
   1.95738786932248        3.52194185100000     
   1.95857281198911        3.49002300900000     
   1.95975775465575        3.45836963500000     
   1.96094269732239        3.42697977500000     
   1.96212763998903        3.39585148900000     
   1.96331258265567        3.36498285000000     
   1.96449752532231        3.33437194400000     
   1.96568246798895        3.30401687000000     
   1.96686741065558        3.27391574200000     
   1.96805235332222        3.24406668400000     
   1.96923729598886        3.21446783600000     
   1.97042223865550        3.18511734900000     
   1.97160718132214        3.15601338700000     
   1.97279212398878        3.12715412800000     
   1.97397706665542        3.09853775900000     
   1.97516200932205        3.07016248500000     
   1.97634695198869        3.04202651800000     
   1.97753189465533        3.01412808500000     
   1.97871683732197        2.98646542400000     
   1.97990177998861        2.95903678700000     
   1.98108672265525        2.93184043700000     
