# pair interaction Ni-Al
#  distance (A)            Energy (eV)
   1.50174162799991        8.04246931000000     
   1.50348325599982        7.98885054300000     
   1.50522488399972        7.93554184100000     
   1.50696651199963        7.88254149300000     
   1.50870813999954        7.82984779000000     
   1.51044976799945        7.77745903600000     
   1.51219139599936        7.72537354900000     
   1.51393302399927        7.67358964800000     
   1.51567465199917        7.62210566400000     
   1.51741627999908        7.57091994400000     
   1.51915790799899        7.52003083100000     
   1.52089953599890        7.46943669100000     
   1.52264116399881        7.41913588800000     
   1.52438279199872        7.36912680200000     
   1.52612441999862        7.31940781800000     
   1.52786604799853        7.26997733200000     
   1.52960767599844        7.22083374600000     
   1.53134930399835        7.17197547700000     
   1.53309093199826        7.12340094400000     
   1.53483255999817        7.07510857800000     
   1.53657418799807        7.02709681800000     
   1.53831581599798        6.97936410900000     
   1.54005744399789        6.93190891200000     
   1.54179907199780        6.88472968800000     
   1.54354069999771        6.83782490900000     
   1.54528232799762        6.79119306200000     
   1.54702395599752        6.74483263200000     
   1.54876558399743        6.69874211800000     
   1.55050721199734        6.65292002800000     
   1.55224883999725        6.60736487200000     
   1.55399046799716        6.56207518000000     
   1.55573209599706        6.51704947900000     
   1.55747372399697        6.47228630600000     
   1.55921535199688        6.42778421200000     
   1.56095697999679        6.38354174800000     
   1.56269860799670        6.33955748100000     
   1.56444023599661        6.29582998200000     
   1.56618186399651        6.25235782700000     
   1.56792349199642        6.20913960200000     
   1.56966511999633        6.16617390500000     
   1.57140674799624        6.12345933500000     
   1.57314837599615        6.08099450500000     
   1.57489000399606        6.03877802900000     
   1.57663163199596        5.99680853500000     
   1.57837325999587        5.95508465300000     
   1.58011488799578        5.91360502500000     
   1.58185651599569        5.87236830000000     
   1.58359814399560        5.83137313000000     
   1.58533977199551        5.79061817900000     
   1.58708139999541        5.75010211800000     
   1.58882302799532        5.70982362300000     
   1.59056465599523        5.66978137800000     
   1.59230628399514        5.62997407600000     
   1.59404791199505        5.59040041500000     
   1.59578953999496        5.55105910100000     
   1.59753116799486        5.51194884900000     
   1.59927279599477        5.47306837800000     
   1.60101442399468        5.43441641700000     
   1.60275605199459        5.39599169700000     
   1.60449767999450        5.35779296400000     
   1.60623930799440        5.31981896200000     
   1.60798093599431        5.28206844700000     
   1.60972256399422        5.24454018300000     
   1.61146419199413        5.20723293800000     
   1.61320581999404        5.17014548700000     
   1.61494744799395        5.13327661300000     
   1.61668907599385        5.09662510600000     
   1.61843070399376        5.06018976000000     
   1.62017233199367        5.02396937900000     
   1.62191395999358        4.98796277100000     
   1.62365558799349        4.95216875100000     
   1.62539721599340        4.91658614200000     
   1.62713884399330        4.88121377200000     
   1.62888047199321        4.84605047900000     
   1.63062209999312        4.81109509900000     
   1.63236372799303        4.77634648500000     
   1.63410535599294        4.74180348600000     
   1.63584698399285        4.70746496800000     
   1.63758861199275        4.67332979400000     
   1.63933023999266        4.63939683800000     
   1.64107186799257        4.60566497900000     
   1.64281349599248        4.57213310400000     
   1.64455512399239        4.53880010300000     
   1.64629675199229        4.50566487300000     
   1.64803837999220        4.47272631900000     
   1.64978000799211        4.43998335000000     
   1.65152163599202        4.40743488100000     
   1.65326326399193        4.37507983500000     
   1.65500489199184        4.34291713900000     
   1.65674651999174        4.31094572700000     
   1.65848814799165        4.27916454000000     
   1.66022977599156        4.24757251900000     
   1.66197140399147        4.21616861900000     
   1.66371303199138        4.18495179500000     
   1.66545465999129        4.15392101200000     
   1.66719628799119        4.12307523300000     
   1.66893791599110        4.09241343800000     
   1.67067954399101        4.06193460100000     
   1.67242117199092        4.03163771200000     
   1.67416279999083        4.00152176100000     
   1.67590442799074        3.97158574200000     
   1.67764605599064        3.94182865800000     
   1.67938768399055        3.91224951700000     
   1.68112931199046        3.88284733300000     
   1.68287093999037        3.85362112200000     
   1.68461256799028        3.82456990900000     
   1.68635419599019        3.79569272200000     
   1.68809582399009        3.76698859700000     
   1.68983745199000        3.73845657300000     
   1.69157907998991        3.71009569500000     
   1.69332070798982        3.68190501300000     
   1.69506233598973        3.65388358500000     
   1.69680396398963        3.62603046700000     
   1.69854559198954        3.59834472900000     
   1.70028721998945        3.57082544100000     
   1.70202884798936        3.54347167900000     
   1.70377047598927        3.51628252300000     
   1.70551210398918        3.48925706000000     
   1.70725373198908        3.46239438400000     
   1.70899535998899        3.43569358700000     
   1.71073698798890        3.40915377400000     
   1.71247861598881        3.38277404900000     
   1.71422024398872        3.35655352400000     
   1.71596187198863        3.33049131500000     
   1.71770349998853        3.30458654400000     
   1.71944512798844        3.27883833500000     
   1.72118675598835        3.25324581900000     
   1.72292838398826        3.22780813300000     
   1.72467001198817        3.20252441400000     
   1.72641163998808        3.17739381100000     
   1.72815326798798        3.15241547000000     
   1.72989489598789        3.12758854800000     
   1.73163652398780        3.10291220100000     
   1.73337815198771        3.07838559500000     
   1.73511977998762        3.05400789700000     
   1.73686140798753        3.02977828100000     
   1.73860303598743        3.00569592200000     
   1.74034466398734        2.98176000500000     
   1.74208629198725        2.95796971400000     
   1.74382791998716        2.93432423900000     
   1.74556954798707        2.91082277900000     
   1.74731117598697        2.88746453000000     
   1.74905280398688        2.86424869600000     
   1.75079443198679        2.84117448900000     
   1.75253605998670        2.81824112000000     
   1.75427768798661        2.79544780400000     
   1.75601931598652        2.77279376500000     
   1.75776094398642        2.75027822800000     
   1.75950257198633        2.72790042200000     
   1.76124419998624        2.70565958500000     
   1.76298582798615        2.68355495000000     
   1.76472745598606        2.66158576300000     
   1.76646908398597        2.63975127200000     
   1.76821071198587        2.61805072400000     
   1.76995233998578        2.59648337800000     
   1.77169396798569        2.57504848900000     
   1.77343559598560        2.55374532500000     
   1.77517722398551        2.53257315000000     
   1.77691885198542        2.51153123600000     
   1.77866047998532        2.49061885900000     
   1.78040210798523        2.46983529800000     
   1.78214373598514        2.44917983600000     
   1.78388536398505        2.42865176000000     
   1.78562699198496        2.40825036300000     
   1.78736861998487        2.38797493700000     
   1.78911024798477        2.36782478400000     
   1.79085187598468        2.34779920400000     
   1.79259350398459        2.32789750700000     
   1.79433513198450        2.30811899900000     
   1.79607675998441        2.28846299900000     
   1.79781838798431        2.26892881900000     
   1.79956001598422        2.24951578800000     
   1.80130164398413        2.23022322600000     
   1.80304327198404        2.21105046300000     
   1.80478489998395        2.19199683400000     
   1.80652652798386        2.17306167500000     
   1.80826815598376        2.15424432400000     
   1.81000978398367        2.13554412700000     
   1.81175141198358        2.11696043100000     
   1.81349303998349        2.09849258500000     
   1.81523466798340        2.08013994800000     
   1.81697629598331        2.06190187300000     
   1.81871792398321        2.04377772500000     
   1.82045955198312        2.02576686600000     
   1.82220117998303        2.00786866900000     
   1.82394280798294        1.99008250400000     
   1.82568443598285        1.97240774500000     
   1.82742606398276        1.95484377200000     
   1.82916769198266        1.93738996900000     
   1.83090931998257        1.92004571900000     
   1.83265094798248        1.90281041300000     
   1.83439257598239        1.88568344400000     
   1.83613420398230        1.86866420700000     
   1.83787583198220        1.85175209900000     
   1.83961745998211        1.83494652600000     
   1.84135908798202        1.81824689300000     
   1.84310071598193        1.80165260800000     
   1.84484234398184        1.78516308100000     
   1.84658397198175        1.76877773200000     
   1.84832559998165        1.75249597800000     
   1.85006722798156        1.73631724000000     
   1.85180885598147        1.72024094200000     
   1.85355048398138        1.70426651700000     
   1.85529211198129        1.68839339000000     
   1.85703373998120        1.67262099900000     
   1.85877536798110        1.65694878100000     
   1.86051699598101        1.64137617700000     
   1.86225862398092        1.62590263200000     
   1.86400025198083        1.61052758800000     
   1.86574187998074        1.59525050000000     
   1.86748350798065        1.58007081900000     
   1.86922513598055        1.56498799900000     
   1.87096676398046        1.55000150200000     
   1.87270839198037        1.53511078700000     
   1.87445001998028        1.52031532100000     
   1.87619164798019        1.50561457000000     
   1.87793327598010        1.49100800500000     
   1.87967490398000        1.47649509700000     
   1.88141653197991        1.46207532900000     
   1.88315815997982        1.44774817300000     
   1.88489978797973        1.43351311600000     
   1.88664141597964        1.41936964100000     
   1.88838304397954        1.40531723500000     
   1.89012467197945        1.39135539100000     
   1.89186629997936        1.37748359900000     
   1.89360792797927        1.36370135800000     
   1.89534955597918        1.35000816500000     
   1.89709118397909        1.33640352300000     
   1.89883281197899        1.32288693500000     
   1.90057443997890        1.30945791000000     
   1.90231606797881        1.29611595600000     
   1.90405769597872        1.28286058400000     
   1.90579932397863        1.26969131400000     
   1.90754095197854        1.25660766000000     
   1.90928257997844        1.24360914300000     
   1.91102420797835        1.23069528600000     
   1.91276583597826        1.21786561600000     
   1.91450746397817        1.20511966000000     
   1.91624909197808        1.19245695000000     
   1.91799071997799        1.17987701700000     
   1.91973234797789        1.16737939900000     
   1.92147397597780        1.15496363300000     
   1.92321560397771        1.14262926200000     
   1.92495723197762        1.13037582800000     
   1.92669885997753        1.11820287800000     
   1.92844048797744        1.10610996000000     
   1.93018211597734        1.09409662500000     
   1.93192374397725        1.08216242600000     
   1.93366537197716        1.07030691900000     
   1.93540699997707        1.05852966300000     
   1.93714862797698        1.04683022000000     
   1.93889025597688        1.03520814800000     
   1.94063188397679        1.02366301800000     
   1.94237351197670        1.01219439600000     
   1.94411513997661        1.00080185100000     
   1.94585676797652       0.989484956200000     
   1.94759839597643       0.978243288200000     
   1.94934002397633       0.967076422400000     
   1.95108165197624       0.955983937700000     
   1.95282327997615       0.944965419200000     
   1.95456490797606       0.934020447700000     
   1.95630653597597       0.923148610300000     
   1.95804816397588       0.912349498300000     
   1.95978979197578       0.901622698400000     
   1.96153141997569       0.890967806700000     
   1.96327304797560       0.880384416800000     
   1.96501467597551       0.869872129200000     
   1.96675630397542       0.859430540200000     
   1.96849793197533       0.849059252800000     
   1.97023955997523       0.838757872600000     
   1.97198118797514       0.828526003300000     
   1.97372281597505       0.818363256300000     
   1.97546444397496       0.808269239500000     
   1.97720607197487       0.798243567500000     
   1.97894769997478       0.788285854200000     
   1.98068932797468       0.778395715800000     
   1.98243095597459       0.768572774100000     
   1.98417258397450       0.758816646800000     
   1.98591421197441       0.749126956500000     
   1.98765583997432       0.739503332200000     
   1.98939746797422       0.729945398700000     
   1.99113909597413       0.720452787200000     
   1.99288072397404       0.711025125000000     
   1.99462235197395       0.701662048900000     
   1.99636397997386       0.692363192700000     
   1.99810560797377       0.683128195000000     
   1.99984723597367       0.673956692700000     
   2.00158886397358       0.664848329800000     
   2.00333049197349       0.655802746100000     
   2.00507211997340       0.646819591300000     
   2.00681374797331       0.637898507300000     
   2.00855537597322       0.629039145600000     
   2.01029700397312       0.620241157400000     
   2.01203863197303       0.611504196000000     
   2.01378025997294       0.602827913000000     
   2.01552188797285       0.594211969300000     
   2.01726351597276       0.585656018600000     
   2.01900514397267       0.577159724400000     
   2.02074677197257       0.568722746500000     
   2.02248839997248       0.560344752100000     
   2.02423002797239       0.552025404400000     
   2.02597165597230       0.543764371900000     
   2.02771328397221       0.535561321300000     
   2.02945491197211       0.527415929000000     
   2.03119653997202       0.519327862200000     
   2.03293816797193       0.511296801100000     
   2.03467979597184       0.503322417500000     
   2.03642142397175       0.495404392700000     
   2.03816305197166       0.487542405500000     
   2.03990467997156       0.479736137000000     
   2.04164630797147       0.471985272200000     
   2.04338793597138       0.464289495400000     
   2.04512956397129       0.456648492000000     
   2.04687119197120       0.449061953600000     
   2.04861281997111       0.441529569200000     
   2.05035444797101       0.434051029500000     
   2.05209607597092       0.426626031100000     
   2.05383770397083       0.419254266100000     
   2.05557933197074       0.411935432100000     
   2.05732095997065       0.404669229700000     
   2.05906258797056       0.397455357400000     
   2.06080421597046       0.390293516200000     
   2.06254584397037       0.383183412100000     
   2.06428747197028       0.376124746300000     
   2.06602909997019       0.369117229700000     
   2.06777072797010       0.362160567100000     
   2.06951235597000       0.355254471500000     
   2.07125398396991       0.348398652300000     
   2.07299561196982       0.341592822100000     
   2.07473723996973       0.334836697100000     
   2.07647886796964       0.328129990900000     
   2.07822049596955       0.321472423300000     
   2.07996212396945       0.314863711300000     
   2.08170375196936       0.308303579000000     
   2.08344537996927       0.301791743900000     
   2.08518700796918       0.295327934400000     
   2.08692863596909       0.288911871900000     
   2.08867026396900       0.282543284300000     
   2.09041189196890       0.276221900500000     
   2.09215351996881       0.269947447600000     
   2.09389514796872       0.263719660400000     
   2.09563677596863       0.257538267300000     
   2.09737840396854       0.251403006200000     
   2.09912003196845       0.245313608600000     
   2.10086165996835       0.239269814100000     
   2.10260328796826       0.233271360800000     
   2.10434491596817       0.227317986300000     
   2.10608654396808       0.221409431900000     
   2.10782817196799       0.215545441200000     
   2.10956979996790       0.209725759400000     
   2.11131142796780       0.203950127300000     
   2.11305305596771       0.198218296800000     
   2.11479468396762       0.192530011500000     
   2.11653631196753       0.186885022000000     
   2.11827793996744       0.181283078200000     
   2.12001956796735       0.175723935400000     
   2.12176119596725       0.170207342300000     
   2.12350282396716       0.164733057800000     
   2.12524445196707       0.159300835100000     
   2.12698607996698       0.153910430300000     
   2.12872770796689       0.148561606200000     
   2.13046933596679       0.143254118100000     
   2.13221096396670       0.137987731600000     
   2.13395259196661       0.132762205800000     
   2.13569421996652       0.127577305300000     
   2.13743584796643       0.122432795600000     
   2.13917747596634       0.117328442400000     
   2.14091910396624       0.112264014000000     
   2.14266073196615       0.107239278200000     
   2.14440235996606       0.102254005300000     
   2.14614398796597        9.73079671600000D-002
   2.14788561596588        9.24009348700000D-002
   2.14962724396579        8.75326836600000D-002
   2.15136887196569        8.27029875800000D-002
   2.15311049996560        7.79116227800000D-002
   2.15485212796551        7.31583667200000D-002
   2.15659375596542        6.84429979400000D-002
   2.15833538396533        6.37652960400000D-002
   2.16007701196524        5.91250419100000D-002
   2.16181863996514        5.45220173100000D-002
   2.16356026796505        4.99560062100000D-002
   2.16530189596496        4.54267922600000D-002
   2.16704352396487        4.09341614500000D-002
   2.16878515196478        3.64778997200000D-002
   2.17052677996468        3.20577959000000D-002
   2.17226840796459        2.76736379700000D-002
   2.17401003596450        2.33252170900000D-002
   2.17575166396441        1.90123235900000D-002
   2.17749329196432        1.47347503700000D-002
   2.17923491996423        1.04922907100000D-002
   2.18097654796413        6.28473822800000D-003
   2.18271817596404        2.11189046000000D-003
   2.18445980396395       -2.02645740500000D-003
   2.18620143196386       -6.13050717100000D-003
   2.18794305996377       -1.02004596600000D-002
   2.18968468796368       -1.42365150500000D-002
   2.19142631596358       -1.82388728300000D-002
   2.19316794396349       -2.22077294800000D-002
   2.19490957196340       -2.61432831700000D-002
   2.19665119996331       -3.00457295900000D-002
   2.19839282796322       -3.39152627100000D-002
   2.20013445596313       -3.77520764500000D-002
   2.20187608396303       -4.15563638100000D-002
   2.20361771196294       -4.53283164700000D-002
   2.20535933996285       -4.90681245000000D-002
   2.20710096796276       -5.27759783300000D-002
