# Embedding energy for Al
#
# 2000 points
#
# Rho     F(Rho) (eV)
#
  .001 -.0141355726
  .002 -.028195795
  .003 -.042180906
  .004 -.0560911445
  .005 -.0699267494
  .006 -.0836879597
  .007 -.0973750141
  .008 -.110988152
  .009 -.124527611
  .01 -.137993631
  .011 -.151386451
  .012 -.16470631
  .013 -.177953447
  .014 -.191128099
  .015 -.204230507
  .016 -.217260909
  .017 -.230219545
  .018 -.243106652
  .019 -.25592247
  .02 -.268667238
  .021 -.281341194
  .022 -.293944578
  .023 -.306477628
  .024 -.318940584
  .025 -.331333684
  .026 -.343657167
  .027 -.355911272
  .028 -.368096238
  .029 -.380212303
  .03 -.392259707
  .031 -.404238689
  .032 -.416149487
  .033 -.427992341
  .034 -.439767488
  .035 -.451475169
  .036 -.463115621
  .037 -.474689085
  .038 -.486195798
  .039 -.497636
  .04 -.50900993
  .041 -.520317825
  .042 -.531559926
  .043 -.542736472
  .044 -.5538477
  .045 -.56489385
  .046 -.575875162
  .047 -.586791873
  .048 -.597644222
  .049 -.608432449
  .05 -.619156793
  .051 -.629817492
  .052 -.640414785
  .053 -.650948911
  .054 -.661420109
  .055 -.671828618
  .056 -.682174677
  .057 -.692458524
  .058 -.702680399
  .059 -.71284054
  .06 -.722939187
  .061 -.732976577
  .062 -.742952951
  .063 -.752868547
  .064 -.762723604
  .065 -.77251836
  .066 -.782253055
  .067 -.791927928
  .068 -.801543217
  .069 -.811099161
  .07 -.820595999
  .071 -.830033971
  .072 -.839413315
  .073 -.848734269
  .074 -.857997073
  .075 -.867201966
  .076 -.876349186
  .077 -.885438973
  .078 -.894471565
  .079 -.903447201
  .08 -.91236612
  .081 -.921228561
  .082 -.930034763
  .083 -.938784965
  .084 -.947479406
  .085 -.956118324
  .086 -.964701958
  .087 -.973230548
  .088 -.981704332
  .089 -.990123549
  .09 -.998488438
  .091 -1.00679924
  .092 -1.01505619
  .093 -1.02325953
  .094 -1.03140949
  .095 -1.03950632
  .096 -1.04755026
  .097 -1.05554154
  .098 -1.06348041
  .099 -1.07136709
  .1 -1.07920184
  .101 -1.08698489
  .102 -1.09471647
  .103 -1.10239684
  .104 -1.11002622
  .105 -1.11760485
  .106 -1.12513298
  .107 -1.13261084
  .108 -1.14003868
  .109 -1.14741672
  .11 -1.15474522
  .111 -1.1620244
  .112 -1.16925451
  .113 -1.17643579
  .114 -1.18356847
  .115 -1.1906528
  .116 -1.19768901
  .117 -1.20467734
  .118 -1.21161804
  .119 -1.21851133
  .12 -1.22535746
  .121 -1.23215667
  .122 -1.23890919
  .123 -1.24561527
  .124 -1.25227515
  .125 -1.25888906
  .126 -1.26545724
  .127 -1.27197993
  .128 -1.27845737
  .129 -1.2848898
  .13 -1.29127745
  .131 -1.29762058
  .132 -1.3039194
  .133 -1.31017418
  .134 -1.31638513
  .135 -1.32255251
  .136 -1.32867655
  .137 -1.33475749
  .138 -1.34079556
  .139 -1.34679102
  .14 -1.35274409
  .141 -1.35865501
  .142 -1.36452403
  .143 -1.37035139
  .144 -1.37613731
  .145 -1.38188205
  .146 -1.38758583
  .147 -1.39324891
  .148 -1.39887151
  .149 -1.40445388
  .15 -1.40999625
  .151 -1.41549887
  .152 -1.42096197
  .153 -1.42638579
  .154 -1.43177058
  .155 -1.43711656
  .156 -1.44242398
  .157 -1.44769308
  .158 -1.4529241
  .159 -1.45811727
  .16 -1.46327284
  .161 -1.46839104
  .162 -1.4734721
  .163 -1.47851629
  .164 -1.48352382
  .165 -1.48849494
  .166 -1.49342989
  .167 -1.4983289
  .168 -1.50319222
  .169 -1.50802008
  .17 -1.51281273
  .171 -1.5175704
  .172 -1.52229332
  .173 -1.52698175
  .174 -1.53163592
  .175 -1.53625607
  .176 -1.54084243
  .177 -1.54539524
  .178 -1.54991476
  .179 -1.5544012
  .18 -1.55885482
  .181 -1.56327584
  .182 -1.56766452
  .183 -1.57202108
  .184 -1.57634578
  .185 -1.58063884
  .186 -1.5849005
  .187 -1.58913101
  .188 -1.5933306
  .189 -1.59749951
  .19 -1.60163799
  .191 -1.60574626
  .192 -1.60982458
  .193 -1.61387317
  .194 -1.61789227
  .195 -1.62188214
  .196 -1.62584299
  .197 -1.62977508
  .198 -1.63367864
  .199 -1.63755392
  .2 -1.64140114
  .201 -1.64522055
  .202 -1.64901239
  .203 -1.65277689
  .204 -1.6565143
  .205 -1.66022486
  .206 -1.66390879
  .207 -1.66756635
  .208 -1.67119777
  .209 -1.67480329
  .21 -1.67838315
  .211 -1.68193759
  .212 -1.68546684
  .213 -1.68897114
  .214 -1.69245075
  .215 -1.69590588
  .216 -1.69933679
  .217 -1.70274371
  .218 -1.70612687
  .219 -1.70948653
  .22 -1.71282291
  .221 -1.71613626
  .222 -1.71942682
  .223 -1.72269482
  .224 -1.7259405
  .225 -1.7291641
  .226 -1.73236587
  .227 -1.73554603
  .228 -1.73870484
  .229 -1.74184252
  .23 -1.74495932
  .231 -1.74805547
  .232 -1.75113122
  .233 -1.7541868
  .234 -1.75722245
  .235 -1.76023841
  .236 -1.76323492
  .237 -1.76621223
  .238 -1.76917056
  .239 -1.77211015
  .24 -1.77503125
  .241 -1.7779341
  .242 -1.78081892
  .243 -1.78368597
  .244 -1.78653548
  .245 -1.78936769
  .246 -1.79218284
  .247 -1.79498117
  .248 -1.79776291
  .249 -1.80052831
  .25 -1.8032776
  .251 -1.80601103
  .252 -1.80872883
  .253 -1.81143124
  .254 -1.81411849
  .255 -1.81679084
  .256 -1.81944851
  .257 -1.82209176
  .258 -1.8247208
  .259 -1.82733589
  .26 -1.82993727
  .261 -1.83252516
  .262 -1.83509982
  .263 -1.83766147
  .264 -1.84021037
  .265 -1.84274674
  .266 -1.84527083
  .267 -1.84778287
  .268 -1.85028311
  .269 -1.85277178
  .27 -1.85524912
  .271 -1.85771538
  .272 -1.86017078
  .273 -1.86261557
  .274 -1.86504999
  .275 -1.86747428
  .276 -1.86988867
  .277 -1.8722934
  .278 -1.87468872
  .279 -1.87707486
  .28 -1.87945207
  .281 -1.88182057
  .282 -1.88418061
  .283 -1.88653242
  .284 -1.88887626
  .285 -1.89121235
  .286 -1.89354093
  .287 -1.89586225
  .288 -1.89817653
  .289 -1.90048403
  .29 -1.90278498
  .291 -1.90507962
  .292 -1.90736818
  .293 -1.90965092
  .294 -1.91192805
  .295 -1.91419983
  .296 -1.9164665
  .297 -1.91872828
  .298 -1.92098543
  .299 -1.92323818
  .3 -1.92548676
  .301 -1.92773139
  .302 -1.92997209
  .303 -1.93220889
  .304 -1.93444177
  .305 -1.93667075
  .306 -1.93889583
  .307 -1.94111701
  .308 -1.9433343
  .309 -1.94554771
  .31 -1.94775724
  .311 -1.94996288
  .312 -1.95216466
  .313 -1.95436257
  .314 -1.95655661
  .315 -1.9587468
  .316 -1.96093313
  .317 -1.96311561
  .318 -1.96529425
  .319 -1.96746904
  .32 -1.96964
  .321 -1.97180713
  .322 -1.97397043
  .323 -1.9761299
  .324 -1.97828556
  .325 -1.98043741
  .326 -1.98258544
  .327 -1.98472967
  .328 -1.98687011
  .329 -1.98900674
  .33 -1.99113959
  .331 -1.99326865
  .332 -1.99539392
  .333 -1.99751542
  .334 -1.99963315
  .335 -2.00174711
  .336 -2.0038573
  .337 -2.00596374
  .338 -2.00806642
  .339 -2.01016535
  .34 -2.01226054
  .341 -2.01435198
  .342 -2.01643969
  .343 -2.01852367
  .344 -2.02060392
  .345 -2.02268044
  .346 -2.02475325
  .347 -2.02682234
  .348 -2.02888773
  .349 -2.03094941
  .35 -2.03300739
  .351 -2.03506167
  .352 -2.03711227
  .353 -2.03915917
  .354 -2.0412024
  .355 -2.04324194
  .356 -2.04527782
  .357 -2.04731002
  .358 -2.04933856
  .359 -2.05136345
  .36 -2.05338468
  .361 -2.05540225
  .362 -2.05741618
  .363 -2.05942647
  .364 -2.06143313
  .365 -2.06343615
  .366 -2.06543554
  .367 -2.06743131
  .368 -2.06942347
  .369 -2.07141201
  .37 -2.07339693
  .371 -2.07537826
  .372 -2.07735598
  .373 -2.07933011
  .374 -2.08130065
  .375 -2.0832676
  .376 -2.08523097
  .377 -2.08719075
  .378 -2.08914697
  .379 -2.09109962
  .38 -2.09304871
  .381 -2.09499423
  .382 -2.0969362
  .383 -2.09887462
  .384 -2.10080949
  .385 -2.10274082
  .386 -2.10466862
  .387 -2.10659288
  .388 -2.10851362
  .389 -2.11043083
  .39 -2.11234452
  .391 -2.1142547
  .392 -2.11616137
  .393 -2.11806453
  .394 -2.1199642
  .395 -2.12186036
  .396 -2.12375304
  .397 -2.12564223
  .398 -2.12752794
  .399 -2.12941017
  .4 -2.13128892
  .401 -2.13316421
  .402 -2.13503603
  .403 -2.13690439
  .404 -2.1387693
  .405 -2.14063076
  .406 -2.14248877
  .407 -2.14434334
  .408 -2.14619447
  .409 -2.14804217
  .41 -2.14988644
  .411 -2.15172729
  .412 -2.15356472
  .413 -2.15539874
  .414 -2.15722934
  .415 -2.15905654
  .416 -2.16088034
  .417 -2.16270074
  .418 -2.16451776
  .419 -2.16633138
  .42 -2.16814162
  .421 -2.16994849
  .422 -2.17175198
  .423 -2.1735521
  .424 -2.17534885
  .425 -2.17714225
  .426 -2.17893229
  .427 -2.18071898
  .428 -2.18250233
  .429 -2.18428233
  .43 -2.186059
  .431 -2.18783233
  .432 -2.18960233
  .433 -2.19136901
  .434 -2.19313238
  .435 -2.19489242
  .436 -2.19664916
  .437 -2.19840259
  .438 -2.20015272
  .439 -2.20189956
  .44 -2.2036431
  .441 -2.20538336
  .442 -2.20712033
  .443 -2.20885402
  .444 -2.21058444
  .445 -2.2123116
  .446 -2.21403548
  .447 -2.21575611
  .448 -2.21747348
  .449 -2.2191876
  .45 -2.22089847
  .451 -2.22260611
  .452 -2.2243105
  .453 -2.22601166
  .454 -2.22770959
  .455 -2.2294043
  .456 -2.23109579
  .457 -2.23278407
  .458 -2.23446913
  .459 -2.23615099
  .46 -2.23782965
  .461 -2.23950511
  .462 -2.24117738
  .463 -2.24284646
  .464 -2.24451236
  .465 -2.24617508
  .466 -2.24783463
  .467 -2.24949101
  .468 -2.25114422
  .469 -2.25279427
  .47 -2.25444117
  .471 -2.25608492
  .472 -2.25772552
  .473 -2.25936297
  .474 -2.26099729
  .475 -2.26262848
  .476 -2.26425653
  .477 -2.26588147
  .478 -2.26750328
  .479 -2.26912198
  .48 -2.27073757
  .481 -2.27235005
  .482 -2.27395943
  .483 -2.27556572
  .484 -2.27716891
  .485 -2.27876902
  .486 -2.28036604
  .487 -2.28195998
  .488 -2.28355085
  .489 -2.28513865
  .49 -2.28672338
  .491 -2.28830506
  .492 -2.28988368
  .493 -2.29145924
  .494 -2.29303176
  .495 -2.29460124
  .496 -2.29616768
  .497 -2.29773109
  .498 -2.29929146
  .499 -2.30084882
  .5 -2.30240315
  .501 -2.30395447
  .502 -2.30550278
  .503 -2.30704808
  .504 -2.30859038
  .505 -2.31012968
  .506 -2.311666
  .507 -2.31319932
  .508 -2.31472966
  .509 -2.31625702
  .51 -2.31778141
  .511 -2.31930282
  .512 -2.32082128
  .513 -2.32233677
  .514 -2.3238493
  .515 -2.32535889
  .516 -2.32686552
  .517 -2.32836922
  .518 -2.32986997
  .519 -2.3313678
  .52 -2.33286269
  .521 -2.33435466
  .522 -2.33584371
  .523 -2.33732984
  .524 -2.33881307
  .525 -2.34029338
  .526 -2.3417708
  .527 -2.34324532
  .528 -2.34471694
  .529 -2.34618568
  .53 -2.34765153
  .531 -2.34911451
  .532 -2.35057461
  .533 -2.35203184
  .534 -2.35348621
  .535 -2.35493771
  .536 -2.35638636
  .537 -2.35783216
  .538 -2.35927511
  .539 -2.36071521
  .54 -2.36215248
  .541 -2.36358691
  .542 -2.36501852
  .543 -2.3664473
  .544 -2.36787326
  .545 -2.36929641
  .546 -2.37071674
  .547 -2.37213427
  .548 -2.373549
  .549 -2.37496093
  .55 -2.37637006
  .551 -2.37777641
  .552 -2.37917998
  .553 -2.38058076
  .554 -2.38197877
  .555 -2.38337401
  .556 -2.38476649
  .557 -2.3861562
  .558 -2.38754316
  .559 -2.38892736
  .56 -2.39030882
  .561 -2.39168753
  .562 -2.39306351
  .563 -2.39443675
  .564 -2.39580727
  .565 -2.39717505
  .566 -2.39854012
  .567 -2.39990248
  .568 -2.40126212
  .569 -2.40261905
  .57 -2.40397329
  .571 -2.40532482
  .572 -2.40667366
  .573 -2.40801982
  .574 -2.40936329
  .575 -2.41070408
  .576 -2.4120422
  .577 -2.41337764
  .578 -2.41471042
  .579 -2.41604054
  .58 -2.417368
  .581 -2.41869281
  .582 -2.42001497
  .583 -2.42133449
  .584 -2.42265137
  .585 -2.42396562
  .586 -2.42527723
  .587 -2.42658623
  .588 -2.4278926
  .589 -2.42919636
  .59 -2.4304975
  .591 -2.43179604
  .592 -2.43309197
  .593 -2.43438531
  .594 -2.43567605
  .595 -2.43696421
  .596 -2.43824978
  .597 -2.43953277
  .598 -2.44081319
  .599 -2.44209104
  .6 -2.44336632
  .601 -2.44463904
  .602 -2.44590919
  .603 -2.44717678
  .604 -2.44844179
  .605 -2.44970423
  .606 -2.4509641
  .607 -2.45222138
  .608 -2.45347608
  .609 -2.4547282
  .61 -2.45597772
  .611 -2.45722465
  .612 -2.45846899
  .613 -2.45971073
  .614 -2.46094986
  .615 -2.46218639
  .616 -2.46342032
  .617 -2.46465163
  .618 -2.46588033
  .619 -2.46710641
  .62 -2.46832986
  .621 -2.4695507
  .622 -2.47076891
  .623 -2.47198448
  .624 -2.47319743
  .625 -2.47440774
  .626 -2.47561541
  .627 -2.47682043
  .628 -2.47802282
  .629 -2.47922255
  .63 -2.48041963
  .631 -2.48161405
  .632 -2.48280582
  .633 -2.48399493
  .634 -2.48518137
  .635 -2.48636515
  .636 -2.48754625
  .637 -2.48872468
  .638 -2.48990043
  .639 -2.49107351
  .64 -2.4922439
  .641 -2.4934116
  .642 -2.49457662
  .643 -2.49573894
  .644 -2.49689857
  .645 -2.4980555
  .646 -2.49920972
  .647 -2.50036125
  .648 -2.50151006
  .649 -2.50265616
  .65 -2.50379955
  .651 -2.50494022
  .652 -2.50607818
  .653 -2.5072134
  .654 -2.50834591
  .655 -2.50947568
  .656 -2.51060272
  .657 -2.51172702
  .658 -2.51284858
  .659 -2.5139674
  .66 -2.51508348
  .661 -2.5161968
  .662 -2.51730738
  .663 -2.5184152
  .664 -2.51952026
  .665 -2.52062257
  .666 -2.5217221
  .667 -2.52281887
  .668 -2.52391288
  .669 -2.5250041
  .67 -2.52609255
  .671 -2.52717822
  .672 -2.52826111
  .673 -2.52934121
  .674 -2.53041853
  .675 -2.53149305
  .676 -2.53256477
  .677 -2.5336337
  .678 -2.53469983
  .679 -2.53576315
  .68 -2.53682366
  .681 -2.53788136
  .682 -2.53893625
  .683 -2.53998832
  .684 -2.54103757
  .685 -2.542084
  .686 -2.5431276
  .687 -2.54416837
  .688 -2.54520631
  .689 -2.54624142
  .69 -2.54727368
  .691 -2.54830311
  .692 -2.54932968
  .693 -2.55035341
  .694 -2.55137429
  .695 -2.55239231
  .696 -2.55340748
  .697 -2.55441978
  .698 -2.55542922
  .699 -2.5564358
  .7 -2.5574395
  .701 -2.55844033
  .702 -2.55943829
  .703 -2.56043336
  .704 -2.56142556
  .705 -2.56241486
  .706 -2.56340128
  .707 -2.5643848
  .708 -2.56536544
  .709 -2.56634317
  .71 -2.567318
  .711 -2.56828993
  .712 -2.56925895
  .713 -2.57022506
  .714 -2.57118825
  .715 -2.57214853
  .716 -2.57310589
  .717 -2.57406032
  .718 -2.57501183
  .719 -2.57596041
  .72 -2.57690606
  .721 -2.57784877
  .722 -2.57878855
  .723 -2.57972538
  .724 -2.58065926
  .725 -2.5815902
  .726 -2.58251819
  .727 -2.58344322
  .728 -2.5843653
  .729 -2.58528441
  .73 -2.58620056
  .731 -2.58711375
  .732 -2.58802396
  .733 -2.58893121
  .734 -2.58983547
  .735 -2.59073676
  .736 -2.59163506
  .737 -2.59253038
  .738 -2.59342271
  .739 -2.59431205
  .74 -2.59519839
  .741 -2.59608174
  .742 -2.59696208
  .743 -2.59783942
  .744 -2.59871376
  .745 -2.59958508
  .746 -2.60045339
  .747 -2.60131868
  .748 -2.60218096
  .749 -2.60304021
  .75 -2.60389643
  .751 -2.60474963
  .752 -2.60559979
  .753 -2.60644691
  .754 -2.607291
  .755 -2.60813205
  .756 -2.60897005
  .757 -2.60980501
  .758 -2.61063691
  .759 -2.61146576
  .76 -2.61229156
  .761 -2.61311429
  .762 -2.61393396
  .763 -2.61475056
  .764 -2.61556409
  .765 -2.61637455
  .766 -2.61718194
  .767 -2.61798624
  .768 -2.61878747
  .769 -2.6195856
  .77 -2.62038065
  .771 -2.62117261
  .772 -2.62196147
  .773 -2.62274724
  .774 -2.62352991
  .775 -2.62430947
  .776 -2.62508592
  .777 -2.62585927
  .778 -2.6266295
  .779 -2.62739661
  .78 -2.62816061
  .781 -2.62892148
  .782 -2.62967922
  .783 -2.63043384
  .784 -2.63118533
  .785 -2.63193368
  .786 -2.63267889
  .787 -2.63342096
  .788 -2.63415989
  .789 -2.63489567
  .79 -2.63562829
  .791 -2.63635777
  .792 -2.63708408
  .793 -2.63780724
  .794 -2.63852724
  .795 -2.63924406
  .796 -2.63995772
  .797 -2.64066821
  .798 -2.64137552
  .799 -2.64207965
  .8 -2.6427806
  .801 -2.64347836
  .802 -2.64417294
  .803 -2.64486432
  .804 -2.64555252
  .805 -2.64623751
  .806 -2.6469193
  .807 -2.64759789
  .808 -2.64827327
  .809 -2.64894544
  .81 -2.6496144
  .811 -2.65028015
  .812 -2.65094267
  .813 -2.65160197
  .814 -2.65225805
  .815 -2.6529109
  .816 -2.65356051
  .817 -2.65420689
  .818 -2.65485003
  .819 -2.65548994
  .82 -2.65612659
  .821 -2.65676
  .822 -2.65739016
  .823 -2.65801707
  .824 -2.65864072
  .825 -2.65926111
  .826 -2.65987823
  .827 -2.66049209
  .828 -2.66110268
  .829 -2.66171
  .83 -2.66231405
  .831 -2.66291481
  .832 -2.66351229
  .833 -2.66410649
  .834 -2.6646974
  .835 -2.66528502
  .836 -2.66586935
  .837 -2.66645038
  .838 -2.6670281
  .839 -2.66760253
  .84 -2.66817364
  .841 -2.66874145
  .842 -2.66930595
  .843 -2.66986713
  .844 -2.67042499
  .845 -2.67097952
  .846 -2.67153074
  .847 -2.67207862
  .848 -2.67262317
  .849 -2.67316439
  .85 -2.67370227
  .851 -2.67423681
  .852 -2.67476801
  .853 -2.67529585
  .854 -2.67582035
  .855 -2.6763415
  .856 -2.67685928
  .857 -2.67737371
  .858 -2.67788478
  .859 -2.67839248
  .86 -2.67889681
  .861 -2.67939777
  .862 -2.67989535
  .863 -2.68038956
  .864 -2.68088038
  .865 -2.68136782
  .866 -2.68185187
  .867 -2.68233254
  .868 -2.6828098
  .869 -2.68328367
  .87 -2.68375414
  .871 -2.68422121
  .872 -2.68468487
  .873 -2.68514512
  .874 -2.68560196
  .875 -2.68605538
  .876 -2.68650538
  .877 -2.68695197
  .878 -2.68739512
  .879 -2.68783485
  .88 -2.68827115
  .881 -2.68870401
  .882 -2.68913344
  .883 -2.68955942
  .884 -2.68998196
  .885 -2.69040106
  .886 -2.6908167
  .887 -2.69122889
  .888 -2.69163762
  .889 -2.6920429
  .89 -2.69244471
  .891 -2.69284306
  .892 -2.69323794
  .893 -2.69362934
  .894 -2.69401727
  .895 -2.69440173
  .896 -2.6947827
  .897 -2.69516019
  .898 -2.69553419
  .899 -2.6959047
  .9 -2.69627171
  .901 -2.69663523
  .902 -2.69699525
  .903 -2.69735177
  .904 -2.69770478
  .905 -2.69805428
  .906 -2.69840027
  .907 -2.69874274
  .908 -2.6990817
  .909 -2.69941713
  .91 -2.69974904
  .911 -2.70007742
  .912 -2.70040227
  .913 -2.70072358
  .914 -2.70104136
  .915 -2.70135559
  .916 -2.70166629
  .917 -2.70197344
  .918 -2.70227703
  .919 -2.70257708
  .92 -2.70287356
  .921 -2.70316649
  .922 -2.70345586
  .923 -2.70374166
  .924 -2.70402389
  .925 -2.70430255
  .926 -2.70457764
  .927 -2.70484915
  .928 -2.70511708
  .929 -2.70538142
  .93 -2.70564218
  .931 -2.70589934
  .932 -2.70615291
  .933 -2.70640289
  .934 -2.70664927
  .935 -2.70689204
  .936 -2.70713121
  .937 -2.70736677
  .938 -2.70759871
  .939 -2.70782704
  .94 -2.70805176
  .941 -2.70827285
  .942 -2.70849031
  .943 -2.70870415
  .944 -2.70891436
  .945 -2.70912093
  .946 -2.70932387
  .947 -2.70952317
  .948 -2.70971882
  .949 -2.70991083
  .95 -2.71009918
  .951 -2.71028389
  .952 -2.71046494
  .953 -2.71064233
  .954 -2.71081606
  .955 -2.71098612
  .956 -2.71115251
  .957 -2.71131524
  .958 -2.71147428
  .959 -2.71162966
  .96 -2.71178135
  .961 -2.71192935
  .962 -2.71207367
  .963 -2.7122143
  .964 -2.71235124
  .965 -2.71248448
  .966 -2.71261402
  .967 -2.71273986
  .968 -2.71286199
  .969 -2.71298041
  .97 -2.71309512
  .971 -2.71320612
  .972 -2.7133134
  .973 -2.71341695
  .974 -2.71351678
  .975 -2.71361289
  .976 -2.71370526
  .977 -2.7137939
  .978 -2.71387881
  .979 -2.71395997
  .98 -2.71403739
  .981 -2.71411107
  .982 -2.71418099
  .983 -2.71424716
  .984 -2.71430958
  .985 -2.71436824
  .986 -2.71442314
  .987 -2.71447427
  .988 -2.71452163
  .989 -2.71456522
  .99 -2.71460504
  .991 -2.71464108
  .992 -2.71467334
  .993 -2.71470182
  .994 -2.71472651
  .995 -2.71474741
  .996 -2.71476452
  .997 -2.71477783
  .998 -2.71478734
  .999 -2.71479305
  1. -2.71479495
  1.001 -2.71479305
  1.002 -2.71478738
  1.003 -2.71477797
  1.004 -2.71476485
  1.005 -2.71474807
  1.006 -2.71472765
  1.007 -2.71470363
  1.008 -2.71467605
  1.009 -2.71464494
  1.01 -2.71461033
  1.011 -2.71457226
  1.012 -2.71453077
  1.013 -2.71448589
  1.014 -2.71443765
  1.015 -2.71438609
  1.016 -2.71433125
  1.017 -2.71427315
  1.018 -2.71421184
  1.019 -2.71414735
  1.02 -2.71407971
  1.021 -2.71400896
  1.022 -2.71393514
  1.023 -2.71385827
  1.024 -2.71377839
  1.025 -2.71369555
  1.026 -2.71360976
  1.027 -2.71352108
  1.028 -2.71342953
  1.029 -2.71333514
  1.03 -2.71323795
  1.031 -2.71313801
  1.032 -2.71303533
  1.033 -2.71292997
  1.034 -2.71282194
  1.035 -2.71271129
  1.036 -2.71259805
  1.037 -2.71248226
  1.038 -2.71236395
  1.039 -2.71224316
  1.04 -2.71211992
  1.041 -2.71199426
  1.042 -2.71186622
  1.043 -2.71173584
  1.044 -2.71160315
  1.045 -2.71146819
  1.046 -2.71133098
  1.047 -2.71119157
  1.048 -2.71104999
  1.049 -2.71090627
  1.05 -2.71076045
  1.051 -2.71061257
  1.052 -2.71046266
  1.053 -2.71031075
  1.054 -2.71015688
  1.055 -2.71000108
  1.056 -2.7098434
  1.057 -2.70968385
