#  Embedding energy in V
#  Electron density         Energy (eV)
   0.0000000000000000E+00   -9.9999999999999995E-08
   1.4011587999999999E-04   -2.4233333715087843E-01
   2.8023175999999998E-04   -3.5376837777895792E-01
   4.2034764000000000E-04   -4.3943825044165169E-01
   5.6046351999999996E-04   -5.1136345689106444E-01
   7.0057939999999992E-04   -5.7434354314132818E-01
   8.4069527999999999E-04   -6.3088768501281667E-01
   9.8081115999999985E-04   -6.8250745104022514E-01
   1.1209270399999999E-03   -7.3019853625096964E-01
   1.2610429200000000E-03   -7.7465873687991493E-01
   1.4011587999999998E-03   -8.1639991720313265E-01
   1.5412746799999999E-03   -8.5581096589831351E-01
   1.6813905600000000E-03   -8.9319568979877995E-01
   1.8215064399999998E-03   -9.2879687146721901E-01
   1.9616223199999997E-03   -9.6281221308003528E-01
   2.1017381999999998E-03   -9.9540528382665472E-01
   2.2418540799999998E-03   -1.0267132632216147E+00
   2.3819699599999999E-03   -1.0568525583863997E+00
   2.5220858400000000E-03   -1.0859229688614809E+00
   2.6622017199999996E-03   -1.1140108337463297E+00
   2.8023175999999997E-03   -1.1411914499020654E+00
   2.9424334799999998E-03   -1.1675309577747910E+00
   3.0825493599999998E-03   -1.1930878316161624E+00
   3.2226652399999999E-03   -1.2179140711563159E+00
   3.3627811200000000E-03   -1.2420561648153758E+00
   3.5028969999999996E-03   -1.2655558758705188E+00
   3.6430128799999997E-03   -1.2884508898433189E+00
   3.7831287599999998E-03   -1.3107753519579124E+00
   3.9232446399999994E-03   -1.3325603166835001E+00
   4.0633605199999999E-03   -1.3538341263429061E+00
   4.2034763999999995E-03   -1.3746227320201541E+00
   4.3435922800000000E-03   -1.3949499671755183E+00
   4.4837081599999997E-03   -1.4148377822259843E+00
   4.6238240399999993E-03   -1.4343064466958635E+00
   4.7639399199999998E-03   -1.4533747242597956E+00
   4.9040557999999995E-03   -1.4720600249971265E+00
   5.0441716800000000E-03   -1.4903785383856016E+00
   5.1842875599999996E-03   -1.5083453499339663E+00
   5.3244034399999992E-03   -1.5259745438505070E+00
   5.4645193199999997E-03   -1.5432792937399562E+00
   5.6046351999999994E-03   -1.5602719429934477E+00
   5.7447510799999999E-03   -1.5769640762691721E+00
   5.8848669599999995E-03   -1.5933665832426089E+00
   6.0249828399999992E-03   -1.6094897156250718E+00
   6.1650987199999997E-03   -1.6253431383001760E+00
   6.3052145999999993E-03   -1.6409359753038739E+00
   6.4453304799999998E-03   -1.6562768512701616E+00
   6.5854463599999994E-03   -1.6713739288776781E+00
   6.7255622399999999E-03   -1.6862349427592993E+00
   6.8656781199999996E-03   -1.7008672302749595E+00
   7.0057939999999992E-03   -1.7152777594954705E+00
   7.1459098799999997E-03   -1.7294731547003934E+00
   7.2860257599999994E-03   -1.7434597196548500E+00
   7.4261416399999999E-03   -1.7572434588974033E+00
   7.5662575199999995E-03   -1.7708300972429836E+00
   7.7063733999999991E-03   -1.7842250976805667E+00
   7.8464892799999988E-03   -1.7974336778242739E+00
   7.9866051600000001E-03   -1.8104608250583685E+00
   8.1267210399999998E-03   -1.8233113105007659E+00
   8.2668369199999994E-03   -1.8359897018958466E+00
   8.4069527999999991E-03   -1.8485003755352920E+00
   8.5470686799999987E-03   -1.8608475272950729E+00
   8.6871845600000001E-03   -1.8730351828674319E+00
   8.8273004399999997E-03   -1.8850672072585046E+00
   8.9674163199999993E-03   -1.8969473136150254E+00
   9.1075321999999990E-03   -1.9086790714371633E+00
   9.2476480799999986E-03   -1.9202659142289158E+00
   9.3877639600000000E-03   -1.9317111466324290E+00
   9.5278798399999996E-03   -1.9430179510881969E+00
   9.6679957199999993E-03   -1.9541893940591046E+00
   9.8081115999999989E-03   -1.9652284318527271E+00
   9.9482274799999985E-03   -1.9761379160731516E+00
   1.0088343360000000E-02   -1.9869205987307372E+00
   1.0228459240000000E-02   -1.9975791370356917E+00
   1.0368575119999999E-02   -2.0081160978990669E+00
   1.0508690999999999E-02   -2.0185339621627008E+00
   1.0648806879999998E-02   -2.0288351285778150E+00
   1.0788922760000000E-02   -2.0390219175502722E+00
   1.0929038639999999E-02   -2.0490965746690200E+00
   1.1069154519999999E-02   -2.0590612740328686E+00
   1.1209270399999999E-02   -2.0689181213895109E+00
   1.1349386279999998E-02   -2.0786691570995797E+00
   1.1489502160000000E-02   -2.0883163589375244E+00
   1.1629618039999999E-02   -2.0978616447401532E+00
   1.1769733919999999E-02   -2.1073068749128354E+00
   1.1909849799999999E-02   -2.1166538548026286E+00
   1.2049965679999998E-02   -2.1259043369468453E+00
   1.2190081560000000E-02   -2.1350600232049701E+00
   1.2330197439999999E-02   -2.1441225667812334E+00
   1.2470313319999999E-02   -2.1530935741446311E+00
   1.2610429199999999E-02   -2.1619746068526586E+00
   1.2750545079999998E-02   -2.1707671832846067E+00
   1.2890660960000000E-02   -2.1794727802898453E+00
   1.3030776839999999E-02   -2.1880928347561195E+00
   1.3170892719999999E-02   -2.1966287451025703E+00
   1.3311008599999999E-02   -2.2050818727018386E+00
   1.3451124480000000E-02   -2.2134535432353277E+00
   1.3591240360000000E-02   -2.2217450479854262E+00
   1.3731356239999999E-02   -2.2299576450682426E+00
   1.3871472119999999E-02   -2.2380925606101472E+00
   1.4011587999999998E-02   -2.2461509898712491E+00
   1.4151703880000000E-02   -2.2541340983186742E+00
   1.4291819759999999E-02   -2.2620430226523816E+00
   1.4431935639999999E-02   -2.2698788717860423E+00
   1.4572051519999999E-02   -2.2776427277853761E+00
   1.4712167399999998E-02   -2.2853356467661654E+00
   1.4852283280000000E-02   -2.2929586597540590E+00
   1.4992399159999999E-02   -2.3005127735081197E+00
   1.5132515039999999E-02   -2.3079989713099800E+00
   1.5272630919999999E-02   -2.3154182137203310E+00
   1.5412746799999998E-02   -2.3227714393043950E+00
   1.5552862680000000E-02   -2.3300595653279093E+00
   1.5692978559999998E-02   -2.3372834884250877E+00
   1.5833094439999997E-02   -2.3444440852399082E+00
   1.5973210320000000E-02   -2.3515422130420318E+00
   1.6113326200000000E-02   -2.3585787103185614E+00
   1.6253442080000000E-02   -2.3655543973427893E+00
   1.6393557959999999E-02   -2.3724700767210178E+00
   1.6533673839999999E-02   -2.3793265339184781E+00
   1.6673789719999998E-02   -2.3861245377653115E+00
   1.6813905599999998E-02   -2.3928648409435347E+00
   1.6954021479999998E-02   -2.3995481804558518E+00
   1.7094137359999997E-02   -2.4061752780771291E+00
   1.7234253239999997E-02   -2.4127468407893193E+00
   1.7374369120000000E-02   -2.4192635612005615E+00
   1.7514485000000000E-02   -2.4257261179491598E+00
   1.7654600879999999E-02   -2.4321351760930958E+00
   1.7794716759999999E-02   -2.4384913874857159E+00
   1.7934832639999999E-02   -2.4447953911381695E+00
   1.8074948519999998E-02   -2.4510478135691809E+00
   1.8215064399999998E-02   -2.4572492691426837E+00
   1.8355180279999998E-02   -2.4634003603938273E+00
   1.8495296159999997E-02   -2.4695016783438475E+00
   1.8635412040000000E-02   -2.4755538028042539E+00
   1.8775527920000000E-02   -2.4815573026707796E+00
   1.8915643800000000E-02   -2.4875127362075129E+00
   1.9055759679999999E-02   -2.4934206513215988E+00
   1.9195875559999999E-02   -2.4992815858289004E+00
   1.9335991439999999E-02   -2.5050960677109737E+00
   1.9476107319999998E-02   -2.5108646153637086E+00
   1.9616223199999998E-02   -2.5165877378379493E+00
   1.9756339079999997E-02   -2.5222659350724292E+00
   1.9896454959999997E-02   -2.5278996981192940E+00
   2.0036570840000000E-02   -2.5334895093625187E+00
   2.0176686720000000E-02   -2.5390358427294792E+00
   2.0316802599999999E-02   -2.5445391638959451E+00
   2.0456918479999999E-02   -2.5499999304847316E+00
   2.0597034359999999E-02   -2.5554185922582660E+00
   2.0737150239999998E-02   -2.5607955913052742E+00
   2.0877266119999998E-02   -2.5661313622218209E+00
   2.1017381999999998E-02   -2.5714263322869080E+00
   2.1157497879999997E-02   -2.5766809216328141E+00
   2.1297613759999997E-02   -2.5818955434103978E+00
   2.1437729640000000E-02   -2.5870706039495093E+00
   2.1577845520000000E-02   -2.5922065029147103E+00
   2.1717961399999999E-02   -2.5973036334564661E+00
   2.1858077279999999E-02   -2.6023623823579545E+00
   2.1998193159999999E-02   -2.6073831301776664E+00
   2.2138309039999998E-02   -2.6123662513879284E+00
   2.2278424919999998E-02   -2.6173121145094953E+00
   2.2418540799999997E-02   -2.6222210822423531E+00
   2.2558656679999997E-02   -2.6270935115928467E+00
   2.2698772559999997E-02   -2.6319297539972761E+00
   2.2838888440000000E-02   -2.6367301554420695E+00
   2.2979004320000000E-02   -2.6414950565806432E+00
   2.3119120199999999E-02   -2.6462247928470752E+00
   2.3259236079999999E-02   -2.6509196945666882E+00
   2.3399351959999998E-02   -2.6555800870636341E+00
   2.3539467839999998E-02   -2.6602062907656059E+00
   2.3679583719999998E-02   -2.6647986213057391E+00
   2.3819699599999997E-02   -2.6693573896218172E+00
   2.3959815479999997E-02   -2.6738829020528545E+00
   2.4099931359999997E-02   -2.6783754604331480E+00
   2.4240047240000000E-02   -2.6828353621838774E+00
   2.4380163119999999E-02   -2.6872629004023230E+00
   2.4520278999999999E-02   -2.6916583639487941E+00
   2.4660394879999999E-02   -2.6960220375313129E+00
   2.4800510759999998E-02   -2.7003542017881577E+00
   2.4940626639999998E-02   -2.7046551333682984E+00
   2.5080742519999998E-02   -2.7089251050098118E+00
   2.5220858399999997E-02   -2.7131643856163303E+00
   2.5360974279999997E-02   -2.7173732403315789E+00
   2.5501090159999996E-02   -2.7215519306120743E+00
   2.5641206040000000E-02   -2.7257007142980232E+00
   2.5781321919999999E-02   -2.7298198456824787E+00
   2.5921437799999999E-02   -2.7339095755788203E+00
   2.6061553679999998E-02   -2.7379701513865906E+00
   2.6201669559999998E-02   -2.7420018171557392E+00
   2.6341785439999998E-02   -2.7460048136493302E+00
   2.6481901319999997E-02   -2.7499793784047499E+00
   2.6622017199999997E-02   -2.7539257457934645E+00
   2.6762133079999997E-02   -2.7578441470793527E+00
   2.6902248960000000E-02   -2.7617348104756871E+00
   2.7042364839999999E-02   -2.7655979612007631E+00
   2.7182480719999999E-02   -2.7694338215322465E+00
   2.7322596599999999E-02   -2.7732426108602604E+00
   2.7462712479999998E-02   -2.7770245457392444E+00
   2.7602828359999998E-02   -2.7807798399386310E+00
   2.7742944239999998E-02   -2.7845087044923633E+00
   2.7883060119999997E-02   -2.7882113477472950E+00
   2.8023175999999997E-02   -2.7918879754104884E+00
   2.8163291879999997E-02   -2.7955387905954572E+00
   2.8303407760000000E-02   -2.7991639938673774E+00
   2.8443523639999999E-02   -2.8027637832872849E+00
   2.8583639519999999E-02   -2.8063383544553036E+00
   2.8723755399999999E-02   -2.8098879005529125E+00
   2.8863871279999998E-02   -2.8134126123842980E+00
   2.9003987159999998E-02   -2.8169126784167919E+00
   2.9144103039999997E-02   -2.8203882848204409E+00
   2.9284218919999997E-02   -2.8238396155067162E+00
   2.9424334799999997E-02   -2.8272668521663928E+00
   2.9564450679999996E-02   -2.8306701743066198E+00
   2.9704566559999999E-02   -2.8340497592871960E+00
   2.9844682439999999E-02   -2.8374057823560830E+00
   2.9984798319999999E-02   -2.8407384166841614E+00
   3.0124914199999998E-02   -2.8440478333992676E+00
   3.0265030079999998E-02   -2.8473342016195087E+00
   3.0405145959999998E-02   -2.8505976884858870E+00
   3.0545261839999997E-02   -2.8538384591942543E+00
   3.0685377719999997E-02   -2.8570566770266015E+00
   3.0825493599999997E-02   -2.8602525033817034E+00
   3.0965609479999996E-02   -2.8634260978051493E+00
   3.1105725359999999E-02   -2.8665776180187463E+00
   3.1245841239999999E-02   -2.8697072199493423E+00
   3.1385957119999995E-02   -2.8728150577570557E+00
   3.1526072999999995E-02   -2.8759012838629494E+00
   3.1666188879999994E-02   -2.8789660489761424E+00
   3.1806304760000001E-02   -2.8820095021203844E+00
   3.1946420640000001E-02   -2.8850317906601113E+00
   3.2086536520000000E-02   -2.8880330603259772E+00
   3.2226652400000000E-02   -2.8910134552398876E+00
   3.2366768280000000E-02   -2.8939731179395469E+00
   3.2506884159999999E-02   -2.8969121894025238E+00
   3.2647000039999999E-02   -2.8998308090698526E+00
   3.2787115919999998E-02   -2.9027291148691772E+00
   3.2927231799999998E-02   -2.9056072432374513E+00
   3.3067347679999998E-02   -2.9084653291432061E+00
   3.3207463559999997E-02   -2.9113035061083856E+00
   3.3347579439999997E-02   -2.9141219062297807E+00
   3.3487695319999997E-02   -2.9169206602000428E+00
   3.3627811199999996E-02   -2.9196998973283175E+00
   3.3767927079999996E-02   -2.9224597455604786E+00
   3.3908042959999996E-02   -2.9252003314989889E+00
   3.4048158839999995E-02   -2.9279217804223969E+00
   3.4188274719999995E-02   -2.9306242163044640E+00
   3.4328390599999994E-02   -2.9333077618329439E+00
   3.4468506479999994E-02   -2.9359725384280182E+00
   3.4608622360000001E-02   -2.9386186662603886E+00
   3.4748738240000000E-02   -2.9412462642690480E+00
   3.4888854120000000E-02   -2.9438554501787202E+00
   3.5028970000000000E-02   -2.9464463405169927E+00
   3.5169085879999999E-02   -2.9490190506311360E+00
   3.5309201759999999E-02   -2.9515736947046234E+00
   3.5449317639999998E-02   -2.9541103857733506E+00
   3.5589433519999998E-02   -2.9566292357415787E+00
   3.5729549399999998E-02   -2.9591303553975785E+00
   3.5869665279999997E-02   -2.9616138544290163E+00
   3.6009781159999997E-02   -2.9640798414380511E+00
   3.6149897039999997E-02   -2.9665284239561833E+00
   3.6290012919999996E-02   -2.9689597084588342E+00
   3.6430128799999996E-02   -2.9713738003796735E+00
   3.6570244679999996E-02   -2.9737708041247064E+00
   3.6710360559999995E-02   -2.9761508230861038E+00
   3.6850476439999995E-02   -2.9785139596558099E+00
   3.6990592319999994E-02   -2.9808603152389064E+00
   3.7130708199999994E-02   -2.9831899902667502E+00
   3.7270824080000001E-02   -2.9855030842098937E+00
   3.7410939960000000E-02   -2.9877996955907804E+00
   3.7551055840000000E-02   -2.9900799219962293E+00
   3.7691171720000000E-02   -2.9923438600897057E+00
   3.7831287599999999E-02   -2.9945916056233948E+00
   3.7971403479999999E-02   -2.9968232534500632E+00
   3.8111519359999999E-02   -2.9990388975347333E+00
   3.8251635239999998E-02   -3.0012386309661556E+00
   3.8391751119999998E-02   -3.0034225459680997E+00
   3.8531866999999997E-02   -3.0055907339104517E+00
   3.8671982879999997E-02   -3.0077432853201382E+00
   3.8812098759999997E-02   -3.0098802898918673E+00
   3.8952214639999996E-02   -3.0120018364986909E+00
   3.9092330519999996E-02   -3.0141080132024070E+00
   3.9232446399999996E-02   -3.0161989072637825E+00
   3.9372562279999995E-02   -3.0182746051526195E+00
   3.9512678159999995E-02   -3.0203351925576540E+00
   3.9652794039999995E-02   -3.0223807543963037E+00
   3.9792909919999994E-02   -3.0244113748242545E+00
   3.9933025799999994E-02   -3.0264271372448945E+00
   4.0073141680000000E-02   -3.0284281243186078E+00
   4.0213257560000000E-02   -3.0304144179719077E+00
   4.0353373440000000E-02   -3.0323860994064407E+00
   4.0493489319999999E-02   -3.0343432491078381E+00
   4.0633605199999999E-02   -3.0362859468544392E+00
   4.0773721079999999E-02   -3.0382142717258702E+00
   4.0913836959999998E-02   -3.0401283021114973E+00
   4.1053952839999998E-02   -3.0420281157187454E+00
   4.1194068719999997E-02   -3.0439137895812904E+00
   4.1334184599999997E-02   -3.0457854000671225E+00
   4.1474300479999997E-02   -3.0476430228864948E+00
   4.1614416359999996E-02   -3.0494867330997404E+00
   4.1754532239999996E-02   -3.0513166051249772E+00
   4.1894648119999996E-02   -3.0531327127456964E+00
   4.2034763999999995E-02   -3.0549351291182303E+00
   4.2174879879999995E-02   -3.0567239267791191E+00
   4.2314995759999995E-02   -3.0584991776523553E+00
   4.2455111639999994E-02   -3.0602609530565275E+00
   4.2595227519999994E-02   -3.0620093237118557E+00
   4.2735343399999993E-02   -3.0637443597471212E+00
   4.2875459280000000E-02   -3.0654661307064996E+00
   4.3015575160000000E-02   -3.0671747055562801E+00
   4.3155691039999999E-02   -3.0688701526915056E+00
   4.3295806919999999E-02   -3.0705525399424953E+00
   4.3435922799999999E-02   -3.0722219345812878E+00
   4.3576038679999998E-02   -3.0738784033279800E+00
   4.3716154559999998E-02   -3.0755220123569829E+00
   4.3856270439999998E-02   -3.0771528273031779E+00
   4.3996386319999997E-02   -3.0787709132679910E+00
   4.4136502199999997E-02   -3.0803763348253796E+00
   4.4276618079999996E-02   -3.0819691560277267E+00
   4.4416733959999996E-02   -3.0835494404116610E+00
   4.4556849839999996E-02   -3.0851172510037879E+00
   4.4696965719999995E-02   -3.0866726503263364E+00
   4.4837081599999995E-02   -3.0882157004027366E+00
   4.4977197479999995E-02   -3.0897464627631082E+00
   4.5117313359999994E-02   -3.0912649984496752E+00
   4.5257429239999994E-02   -3.0927713680221105E+00
   4.5397545119999994E-02   -3.0942656315627937E+00
   4.5537661000000000E-02   -3.0957478486820094E+00
   4.5677776880000000E-02   -3.0972180785230603E+00
   4.5817892759999999E-02   -3.0986763797673236E+00
   4.5958008639999999E-02   -3.1001228106392218E+00
   4.6098124519999999E-02   -3.1015574289111405E+00
   4.6238240399999998E-02   -3.1029802919082674E+00
   4.6378356279999998E-02   -3.1043914565133677E+00
   4.6518472159999998E-02   -3.1057909791715042E+00
   4.6658588039999997E-02   -3.1071789158946759E+00
   4.6798703919999997E-02   -3.1085553222664060E+00
   4.6938819799999996E-02   -3.1099202534462687E+00
   4.7078935679999996E-02   -3.1112737641743453E+00
   4.7219051559999996E-02   -3.1126159087756307E+00
   4.7359167439999995E-02   -3.1139467411643751E+00
   4.7499283319999995E-02   -3.1152663148483670E+00
   4.7639399199999995E-02   -3.1165746829331642E+00
   4.7779515079999994E-02   -3.1178718981262672E+00
   4.7919630959999994E-02   -3.1191580127412299E+00
   4.8059746839999994E-02   -3.1204330787017276E+00
   4.8199862719999993E-02   -3.1216971475455644E+00
   4.8339978600000000E-02   -3.1229502704286292E+00
   4.8480094479999999E-02   -3.1241924981288007E+00
   4.8620210359999999E-02   -3.1254238810497994E+00
   4.8760326239999999E-02   -3.1266444692249955E+00
   4.8900442119999998E-02   -3.1278543123211566E+00
   4.9040557999999998E-02   -3.1290534596421602E+00
   4.9180673879999998E-02   -3.1302419601326474E+00
   4.9320789759999997E-02   -3.1314198623816329E+00
   4.9460905639999997E-02   -3.1325872146260747E+00
   4.9601021519999997E-02   -3.1337440647543859E+00
   4.9741137399999996E-02   -3.1348904603099150E+00
   4.9881253279999996E-02   -3.1360264484943730E+00
   5.0021369159999995E-02   -3.1371520761712177E+00
   5.0161485039999995E-02   -3.1382673898690023E+00
   5.0301600919999995E-02   -3.1393724357846731E+00
   5.0441716799999994E-02   -3.1404672597868282E+00
   5.0581832679999994E-02   -3.1415519074189406E+00
   5.0721948559999994E-02   -3.1426264239025348E+00
   5.0862064439999993E-02   -3.1436908541403237E+00
   5.1002180319999993E-02   -3.1447452427193117E+00
   5.1142296199999999E-02   -3.1457896339138549E+00
   5.1282412079999999E-02   -3.1468240716886853E+00
   5.1422527959999999E-02   -3.1478485997018959E+00
   5.1562643839999998E-02   -3.1488632613078917E+00
   5.1702759719999998E-02   -3.1498680995603019E+00
   5.1842875599999998E-02   -3.1508631572148587E+00
   5.1982991479999997E-02   -3.1518484767322379E+00
   5.2123107359999997E-02   -3.1528241002808710E+00
   5.2263223239999997E-02   -3.1537900697397130E+00
   5.2403339119999996E-02   -3.1547464267009890E+00
   5.2543454999999996E-02   -3.1556932124728956E+00
   5.2683570879999995E-02   -3.1566304680822808E+00
   5.2823686759999995E-02   -3.1575582342772828E+00
   5.2963802639999995E-02   -3.1584765515299416E+00
   5.3103918519999994E-02   -3.1593854600387785E+00
   5.3244034399999994E-02   -3.1602849997313469E+00
   5.3384150279999994E-02   -3.1611752102667476E+00
   5.3524266159999993E-02   -3.1620561310381192E+00
