#   Distance (Angstroms)          Electron density
    1.501484714666746       8.4403145720000001E-002
    1.502969429333493       8.4388526919999993E-002
    1.504454144000239       8.4373751969999979E-002
    1.505938858666985       8.4358821249999991E-002
    1.507423573333731       8.4343735170000009E-002
    1.508908288000477       8.4328494129999996E-002
    1.510393002667223       8.4313098530000001E-002
    1.511877717333970       8.4297548760000005E-002
    1.513362432000716       8.4281845219999987E-002
    1.514847146667462       8.4265988309999997E-002
    1.516331861334208       8.4249978429999999E-002
    1.517816576000954       8.4233815970000006E-002
    1.519301290667701       8.4217501329999997E-002
    1.520786005334447       8.4201034899999989E-002
    1.522270720001193       8.4184417090000014E-002
    1.523755434667940       8.4167648289999999E-002
    1.525240149334686       8.4150728889999993E-002
    1.526724864001432       8.4133659289999994E-002
    1.528209578668178       8.4116439879999998E-002
    1.529694293334924       8.4099071060000004E-002
    1.531179008001670       8.4081553219999989E-002
    1.532663722668417       8.4063886769999989E-002
    1.534148437335163       8.4046072080000016E-002
    1.535633152001909       8.4028109549999996E-002
    1.537117866668656       8.4009999590000000E-002
    1.538602581335402       8.3991742569999985E-002
    1.540087296002148       8.3973338900000005E-002
    1.541572010668894       8.3954788970000003E-002
    1.543056725335640       8.3936093160000009E-002
    1.544541440002386       8.3917251870000005E-002
    1.546026154669133       8.3898265480000003E-002
    1.547510869335879       8.3879134410000002E-002
    1.548995584002625       8.3859859019999998E-002
    1.550480298669371       8.3840439710000005E-002
    1.551965013336118       8.3820876880000004E-002
    1.553449728002864       8.3801170910000007E-002
    1.554934442669610       8.3781322189999994E-002
    1.556419157336356       8.3761331109999997E-002
    1.557903872003102       8.3741198059999995E-002
    1.559388586669849       8.3720923429999985E-002
    1.560873301336595       8.3700507600000016E-002
    1.562358016003341       8.3679950970000014E-002
    1.563842730670087       8.3659253919999994E-002
    1.565327445336834       8.3638416830000004E-002
    1.566812160003580       8.3617440099999989E-002
    1.568296874670326       8.3596324109999998E-002
    1.569781589337072       8.3575069249999991E-002
    1.571266304003819       8.3553675900000002E-002
    1.572751018670565       8.3532144450000008E-002
    1.574235733337311       8.3510475279999987E-002
    1.575720448004057       8.3488668779999990E-002
    1.577205162670803       8.3466725329999996E-002
    1.578689877337550       8.3444645319999999E-002
    1.580174592004296       8.3422429119999997E-002
    1.581659306671042       8.3400077129999985E-002
    1.583144021337788       8.3377589719999996E-002
    1.584628736004535       8.3354967280000007E-002
    1.586113450671281       8.3332210190000016E-002
    1.587598165338027       8.3309318839999982E-002
    1.589082880004773       8.3286293590000007E-002
    1.590567594671519       8.3263134839999999E-002
    1.592052309338265       8.3239842959999990E-002
    1.593537024005012       8.3216418339999993E-002
    1.595021738671758       8.3192861349999987E-002
    1.596506453338504       8.3169172380000003E-002
    1.597991168005251       8.3145351800000000E-002
    1.599475882671997       8.3121399999999994E-002
    1.600960597338743       8.3097317340000014E-002
    1.602445312005489       8.3073104210000004E-002
    1.603930026672235       8.3048760990000012E-002
    1.605414741338981       8.3024288049999999E-002
    1.606899456005728       8.2999685769999996E-002
    1.608384170672474       8.2974954530000016E-002
    1.609868885339220       8.2950094700000001E-002
    1.611353600005967       8.2925106659999983E-002
    1.612838314672713       8.2899990789999993E-002
    1.614323029339459       8.2874747449999990E-002
    1.615807744006205       8.2849377030000007E-002
    1.617292458672951       8.2823879890000001E-002
    1.618777173339698       8.2798256410000004E-002
    1.620261888006444       8.2772506969999995E-002
    1.621746602673190       8.2746631939999986E-002
    1.623231317339936       8.2720631680000007E-002
    1.624716032006682       8.2694506580000002E-002
    1.626200746673429       8.2668257000000001E-002
    1.627685461340175       8.2641883319999998E-002
    1.629170176006921       8.2615385900000007E-002
    1.630654890673667       8.2588765120000005E-002
    1.632139605340414       8.2562021340000005E-002
    1.633624320007160       8.2535154939999984E-002
    1.635109034673906       8.2508166290000009E-002
    1.636593749340652       8.2481055750000003E-002
    1.638078464007398       8.2453823689999997E-002
    1.639563178674145       8.2426470490000003E-002
    1.641047893340891       8.2398996499999999E-002
    1.642532608007637       8.2371402089999997E-002
    1.644017322674383       8.2343687639999992E-002
    1.645502037341130       8.2315853509999997E-002
    1.646986752007876       8.2287900060000005E-002
    1.648471466674622       8.2259827669999996E-002
    1.649956181341368       8.2231636689999998E-002
    1.651440896008114       8.2203327480000006E-002
    1.652925610674860       8.2174900419999997E-002
    1.654410325341607       8.2146355870000001E-002
    1.655895040008353       8.2117694190000012E-002
    1.657379754675099       8.2088915750000009E-002
    1.658864469341846       8.2060020900000001E-002
    1.660349184008592       8.2031010010000003E-002
    1.661833898675338       8.2001883440000007E-002
    1.663318613342084       8.1972641550000009E-002
    1.664803328008830       8.1943284710000004E-002
    1.666288042675577       8.1913813260000001E-002
    1.667772757342323       8.1884227579999997E-002
    1.669257472009069       8.1854528020000004E-002
    1.670742186675815       8.1824714949999997E-002
    1.672226901342562       8.1794788710000006E-002
    1.673711616009308       8.1764749670000008E-002
    1.675196330676054       8.1734598189999996E-002
    1.676681045342800       8.1704334620000001E-002
    1.678165760009546       8.1673959319999998E-002
    1.679650474676293       8.1643472639999999E-002
    1.681135189343039       8.1612874949999998E-002
    1.682619904009785       8.1582166590000007E-002
    1.684104618676531       8.1551347930000002E-002
    1.685589333343277       8.1520419309999994E-002
    1.687074048010023       8.1489381099999996E-002
    1.688558762676770       8.1458233640000000E-002
    1.690043477343516       8.1426977289999982E-002
    1.691528192010262       8.1395612399999990E-002
    1.693012906677009       8.1364139330000000E-002
    1.694497621343755       8.1332558410000004E-002
    1.695982336010501       8.1300870019999998E-002
    1.697467050677247       8.1269074489999991E-002
    1.698951765343993       8.1237172189999995E-002
    1.700436480010739       8.1205163450000004E-002
    1.701921194677486       8.1173048619999992E-002
    1.703405909344232       8.1140828070000008E-002
    1.704890624010978       8.1108502129999991E-002
    1.706375338677725       8.1076071150000004E-002
    1.707860053344471       8.1043535489999989E-002
    1.709344768011217       8.1010895490000010E-002
    1.710829482677963       8.0978151489999988E-002
    1.712314197344709       8.0945303839999987E-002
    1.713798912011456       8.0912352890000001E-002
    1.715283626678202       8.0879298990000006E-002
    1.716768341344948       8.0846142469999993E-002
    1.718253056011694       8.0812883690000010E-002
    1.719737770678440       8.0779522980000014E-002
    1.721222485345186       8.0746060699999997E-002
    1.722707200011933       8.0712497170000006E-002
    1.724191914678679       8.0678832759999999E-002
    1.725676629345425       8.0645067790000002E-002
    1.727161344012172       8.0611202609999992E-002
    1.728646058678918       8.0577237569999998E-002
    1.730130773345664       8.0543172990000009E-002
    1.731615488012410       8.0509009230000004E-002
    1.733100202679156       8.0474746619999991E-002
    1.734584917345902       8.0440385509999999E-002
    1.736069632012649       8.0405926220000001E-002
    1.737554346679395       8.0371369100000010E-002
    1.739039061346141       8.0336714489999999E-002
    1.740523776012888       8.0301962719999995E-002
    1.742008490679634       8.0267114129999992E-002
    1.743493205346380       8.0232169059999983E-002
    1.744977920013126       8.0197127849999994E-002
    1.746462634679872       8.0161990820000000E-002
    1.747947349346618       8.0126758309999992E-002
    1.749432064013365       8.0091430670000001E-002
    1.750916778680111       8.0056008220000017E-002
    1.752401493346857       8.0020491289999995E-002
    1.753886208013603       7.9984880220000001E-002
    1.755370922680350       7.9949175339999998E-002
    1.756855637347096       7.9913376990000007E-002
    1.758340352013842       7.9877485500000001E-002
    1.759825066680588       7.9841501179999996E-002
    1.761309781347335       7.9805424390000006E-002
    1.762794496014081       7.9769255450000012E-002
    1.764279210680827       7.9732994680000004E-002
    1.765763925347573       7.9696642410000003E-002
    1.767248640014319       7.9660198990000000E-002
    1.768733354681066       7.9623664719999994E-002
    1.770218069347812       7.9587039949999996E-002
    1.771702784014558       7.9550324990000014E-002
    1.773187498681304       7.9513520180000006E-002
    1.774672213348051       7.9476625839999997E-002
    1.776156928014797       7.9439642300000006E-002
    1.777641642681543       7.9402569879999998E-002
    1.779126357348289       7.9365408899999998E-002
    1.780611072015035       7.9328159700000000E-002
    1.782095786681781       7.9290822589999994E-002
    1.783580501348528       7.9253397909999990E-002
    1.785065216015274       7.9215885959999994E-002
    1.786549930682020       7.9178287070000009E-002
    1.788034645348767       7.9140601569999998E-002
    1.789519360015513       7.9102829779999997E-002
    1.791004074682259       7.9064972020000006E-002
    1.792488789349005       7.9027028599999998E-002
    1.793973504015751       7.8988999850000008E-002
    1.795458218682497       7.8950886090000001E-002
    1.796942933349244       7.8912687630000011E-002
    1.798427648015990       7.8874404800000004E-002
    1.799912362682736       7.8836037910000005E-002
    1.801397077349483       7.8797587279999988E-002
    1.802881792016229       7.8759053219999995E-002
    1.804366506682975       7.8720436060000001E-002
    1.805851221349721       7.8681736099999995E-002
    1.807335936016467       7.8642953670000004E-002
    1.808820650683214       7.8604089079999993E-002
    1.810305365349960       7.8565142640000012E-002
    1.811790080016706       7.8526114669999991E-002
    1.813274794683452       7.8487005479999992E-002
    1.814759509350198       7.8447815379999994E-002
    1.816244224016945       7.8408544689999999E-002
    1.817728938683691       7.8369193710000005E-002
    1.819213653350437       7.8329762760000010E-002
    1.820698368017183       7.8290252150000006E-002
    1.822183082683930       7.8250662200000001E-002
    1.823667797350676       7.8210993200000001E-002
    1.825152512017422       7.8171245469999997E-002
    1.826637226684168       7.8131419320000006E-002
    1.828121941350915       7.8091515050000009E-002
    1.829606656017661       7.8051532980000005E-002
    1.831091370684407       7.8011473410000010E-002
    1.832576085351153       7.7971336640000004E-002
    1.834060800017899       7.7931123000000007E-002
    1.835545514684646       7.7890832769999996E-002
    1.837030229351392       7.7850466260000006E-002
    1.838514944018138       7.7810023790000002E-002
    1.839999658684884       7.7769505649999999E-002
    1.841484373351630       7.7728912149999996E-002
    1.842969088018376       7.7688243600000000E-002
    1.844453802685123       7.7647500279999999E-002
    1.845938517351869       7.7606682520000003E-002
    1.847423232018615       7.7565790600000009E-002
    1.848907946685362       7.7524824830000005E-002
    1.850392661352108       7.7483785510000001E-002
    1.851877376018854       7.7442672940000001E-002
    1.853362090685600       7.7401487419999988E-002
    1.854846805352346       7.7360229249999986E-002
    1.856331520019093       7.7318898730000001E-002
    1.857816234685839       7.7277496160000005E-002
    1.859300949352585       7.7236021830000006E-002
    1.860785664019331       7.7194476040000009E-002
    1.862270378686078       7.7152859090000003E-002
    1.863755093352824       7.7111171279999997E-002
    1.865239808019570       7.7069412889999995E-002
    1.866724522686316       7.7027584230000006E-002
    1.868209237353062       7.6985685590000008E-002
    1.869693952019809       7.6943717260000000E-002
    1.871178666686555       7.6901679539999996E-002
    1.872663381353301       7.6859572720000005E-002
    1.874148096020047       7.6817397090000004E-002
    1.875632810686793       7.6775152949999992E-002
    1.877117525353539       7.6732840590000002E-002
    1.878602240020286       7.6690460289999995E-002
    1.880086954687032       7.6648012350000005E-002
    1.881571669353778       7.6605497059999994E-002
    1.883056384020525       7.6562914709999994E-002
    1.884541098687271       7.6520265590000003E-002
    1.886025813354017       7.6477549979999999E-002
    1.887510528020763       7.6434768169999998E-002
    1.888995242687509       7.6391920459999998E-002
    1.890479957354255       7.6349007120000012E-002
    1.891964672021002       7.6306028449999994E-002
    1.893449386687748       7.6262984729999994E-002
    1.894934101354494       7.6219876249999992E-002
    1.896418816021241       7.6176703279999991E-002
    1.897903530687987       7.6133466129999992E-002
    1.899388245354733       7.6090165060000006E-002
    1.900872960021479       7.6046800359999995E-002
    1.902357674688225       7.6003372319999993E-002
    1.903842389354972       7.5959881219999996E-002
    1.905327104021718       7.5916327340000000E-002
    1.906811818688464       7.5872710960000012E-002
    1.908296533355210       7.5829032359999999E-002
    1.909781248021956       7.5785291830000006E-002
    1.911265962688702       7.5741489630000007E-002
    1.912750677355449       7.5697626059999994E-002
    1.914235392022195       7.5653701389999997E-002
    1.915720106688941       7.5609715899999994E-002
    1.917204821355688       7.5565669870000010E-002
    1.918689536022434       7.5521563570000003E-002
    1.920174250689180       7.5477397279999998E-002
    1.921658965355926       7.5433171280000000E-002
    1.923143680022672       7.5388885840000004E-002
    1.924628394689418       7.5344541239999998E-002
    1.926113109356165       7.5300137759999997E-002
    1.927597824022911       7.5255675659999994E-002
    1.929082538689657       7.5211155220000006E-002
    1.930567253356404       7.5166576709999999E-002
    1.932051968023150       7.5121940420000000E-002
    1.933536682689896       7.5077246599999992E-002
    1.935021397356642       7.5032495530000007E-002
    1.936506112023388       7.4987687489999999E-002
    1.937990826690134       7.4942822729999996E-002
    1.939475541356881       7.4897901549999997E-002
    1.940960256023627       7.4852924190000003E-002
    1.942444970690373       7.4807890930000003E-002
    1.943929685357119       7.4762802049999983E-002
    1.945414400023866       7.4717657800000001E-002
    1.946899114690612       7.4672458459999991E-002
    1.948383829357358       7.4627204300000010E-002
    1.949868544024104       7.4581895569999999E-002
    1.951353258690851       7.4536532550000008E-002
    1.952837973357597       7.4491115499999996E-002
    1.954322688024343       7.4445644680000012E-002
    1.955807402691089       7.4400120369999998E-002
    1.957292117357835       7.4354542829999994E-002
    1.958776832024581       7.4308912310000004E-002
    1.960261546691328       7.4263229080000004E-002
    1.961746261358074       7.4217493409999999E-002
    1.963230976024820       7.4171705559999985E-002
    1.964715690691567       7.4125865780000000E-002
    1.966200405358313       7.4079974340000003E-002
    1.967685120025059       7.4034031499999999E-002
    1.969169834691805       7.3988037519999992E-002
    1.970654549358551       7.3941992660000002E-002
    1.972139264025298       7.3895897179999999E-002
    1.973623978692044       7.3849751330000002E-002
    1.975108693358790       7.3803555379999999E-002
    1.976593408025536       7.3757309580000001E-002
    1.978078122692283       7.3711014189999986E-002
    1.979562837359029       7.3664669460000001E-002
    1.981047552025775       7.3618275659999997E-002
    1.982532266692521       7.3571833030000011E-002
    1.984016981359267       7.3525341829999995E-002
    1.985501696026013       7.3478802319999996E-002
    1.986986410692760       7.3432214750000000E-002
    1.988471125359506       7.3385579380000001E-002
    1.989955840026252       7.3338896450000002E-002
    1.991440554692998       7.3292166219999997E-002
    1.992925269359745       7.3245388939999998E-002
    1.994409984026491       7.3198564859999991E-002
    1.995894698693237       7.3151694229999995E-002
    1.997379413359983       7.3104777309999989E-002
    1.998864128026730       7.3057814340000000E-002
    2.000348842693476       7.3010805580000007E-002
    2.001833557360222       7.2963751260000000E-002
    2.003318272026968       7.2916651649999995E-002
    2.004802986693714       7.2869506980000001E-002
    2.006287701360461       7.2822317510000003E-002
    2.007772416027207       7.2775083490000005E-002
    2.009257130693953       7.2727805150000000E-002
    2.010741845360699       7.2680482739999999E-002
    2.012226560027445       7.2633116519999996E-002
    2.013711274694192       7.2585706719999994E-002
    2.015195989360938       7.2538253590000004E-002
    2.016680704027684       7.2490757370000001E-002
    2.018165418694430       7.2443218310000006E-002
    2.019650133361177       7.2395636649999995E-002
    2.021134848027923       7.2348012630000005E-002
    2.022619562694669       7.2300346490000003E-002
    2.024104277361415       7.2252638480000009E-002
    2.025588992028161       7.2204888839999990E-002
    2.027073706694908       7.2157097800000001E-002
    2.028558421361654       7.2109265609999991E-002
    2.030043136028400       7.2061392499999997E-002
    2.031527850695146       7.2013478719999995E-002
    2.033012565361893       7.1965524500000004E-002
    2.034497280028639       7.1917530080000001E-002
    2.035981994695385       7.1869495709999995E-002
    2.037466709362131       7.1821421599999997E-002
    2.038951424028877       7.1773308009999992E-002
    2.040436138695624       7.1725155169999999E-002
    2.041920853362370       7.1676963300000001E-002
    2.043405568029116       7.1628732660000001E-002
    2.044890282695862       7.1580463470000000E-002
    2.046374997362609       7.1532155970000000E-002
    2.047859712029355       7.1483810380000001E-002
    2.049344426696101       7.1435426950000007E-002
    2.050829141362847       7.1387005900000000E-002
    2.052313856029593       7.1338547480000001E-002
    2.053798570696340       7.1290051899999991E-002
    2.055283285363086       7.1241519400000000E-002
    2.056768000029832       7.1192950209999992E-002
    2.058252714696578       7.1144344560000006E-002
    2.059737429363325       7.1095702679999997E-002
    2.061222144030071       7.1047024800000003E-002
    2.062706858696817       7.0998311140000006E-002
    2.064191573363563       7.0949561950000009E-002
    2.065676288030309       7.0900777430000002E-002
    2.067161002697055       7.0851957829999996E-002
    2.068645717363802       7.0803103360000001E-002
