#   Distance (Angstroms)          Energy (eV)
    1.501484714666746        51.78036529000000     
    1.502969429333493        51.44590182000000     
    1.504454144000239        51.11352515000000     
    1.505938858666985        50.78322252000000     
    1.507423573333731        50.45498124000000     
    1.508908288000477        50.12878872000000     
    1.510393002667223        49.80463242000000     
    1.511877717333970        49.48249990000000     
    1.513362432000716        49.16237876000000     
    1.514847146667462        48.84425671000000     
    1.516331861334208        48.52812151000000     
    1.517816576000954        48.21396101000000     
    1.519301290667701        47.90176313000000     
    1.520786005334447        47.59151586000000     
    1.522270720001193        47.28320725000000     
    1.523755434667940        46.97682544000000     
    1.525240149334686        46.67235865000000     
    1.526724864001432        46.36979514000000     
    1.528209578668178        46.06912325000000     
    1.529694293334924        45.77033142000000     
    1.531179008001670        45.47340813000000     
    1.532663722668417        45.17834193000000     
    1.534148437335163        44.88512145000000     
    1.535633152001909        44.59373539000000     
    1.537117866668656        44.30417250000000     
    1.538602581335402        44.01642162000000     
    1.540087296002148        43.73047165000000     
    1.541572010668894        43.44631155000000     
    1.543056725335640        43.16393035000000     
    1.544541440002386        42.88331716000000     
    1.546026154669133        42.60446113000000     
    1.547510869335879        42.32735149000000     
    1.548995584002625        42.05197754000000     
    1.550480298669371        41.77832864000000     
    1.551965013336118        41.50639421000000     
    1.553449728002864        41.23616374000000     
    1.554934442669610        40.96762677000000     
    1.556419157336356        40.70077292000000     
    1.557903872003102        40.43559187000000     
    1.559388586669849        40.17207336000000     
    1.560873301336595        39.91020718000000     
    1.562358016003341        39.64998320000000     
    1.563842730670087        39.39139134000000     
    1.565327445336834        39.13442158000000     
    1.566812160003580        38.87906398000000     
    1.568296874670326        38.62530863000000     
    1.569781589337072        38.37314570000000     
    1.571266304003819        38.12256542000000     
    1.572751018670565        37.87355806000000     
    1.574235733337311        37.62611398000000     
    1.575720448004057        37.38022356000000     
    1.577205162670803        37.13587727000000     
    1.578689877337550        36.89306562000000     
    1.580174592004296        36.65177920000000     
    1.581659306671042        36.41200862000000     
    1.583144021337788        36.17374457000000     
    1.584628736004535        35.93697781000000     
    1.586113450671281        35.70169912000000     
    1.587598165338027        35.46789936000000     
    1.589082880004773        35.23556945000000     
    1.590567594671519        35.00470035000000     
    1.592052309338265        34.77528307000000     
    1.593537024005012        34.54730870000000     
    1.595021738671758        34.32076836000000     
    1.596506453338504        34.09565323000000     
    1.597991168005251        33.87195456000000     
    1.599475882671997        33.64966361000000     
    1.600960597338743        33.42877175000000     
    1.602445312005489        33.20927036000000     
    1.603930026672235        32.99115088000000     
    1.605414741338981        32.77440482000000     
    1.606899456005728        32.55902373000000     
    1.608384170672474        32.34499920000000     
    1.609868885339220        32.13232288000000     
    1.611353600005967        31.92098648000000     
    1.612838314672713        31.71098174000000     
    1.614323029339459        31.50230048000000     
    1.615807744006205        31.29493454000000     
    1.617292458672951        31.08887582000000     
    1.618777173339698        30.88411627000000     
    1.620261888006444        30.68064789000000     
    1.621746602673190        30.47846273000000     
    1.623231317339936        30.27755288000000     
    1.624716032006682        30.07791049000000     
    1.626200746673429        29.87952774000000     
    1.627685461340175        29.68239688000000     
    1.629170176006921        29.48651018000000     
    1.630654890673667        29.29185999000000     
    1.632139605340414        29.09843868000000     
    1.633624320007160        28.90623867000000     
    1.635109034673906        28.71525244000000     
    1.636593749340652        28.52547250000000     
    1.638078464007398        28.33689141000000     
    1.639563178674145        28.14950179000000     
    1.641047893340891        27.96329627000000     
    1.642532608007637        27.77826756000000     
    1.644017322674383        27.59440840000000     
    1.645502037341130        27.41171157000000     
    1.646986752007876        27.23016990000000     
    1.648471466674622        27.04977626000000     
    1.649956181341368        26.87052357000000     
    1.651440896008114        26.69240478000000     
    1.652925610674860        26.51541290000000     
    1.654410325341607        26.33954097000000     
    1.655895040008353        26.16478207000000     
    1.657379754675099        25.99112933000000     
    1.658864469341846        25.81857593000000     
    1.660349184008592        25.64711506000000     
    1.661833898675338        25.47673999000000     
    1.663318613342084        25.30744401000000     
    1.664803328008830        25.13922044000000     
    1.666288042675577        24.97206267000000     
    1.667772757342323        24.80596411000000     
    1.669257472009069        24.64091820000000     
    1.670742186675815        24.47691846000000     
    1.672226901342562        24.31395840000000     
    1.673711616009308        24.15203161000000     
    1.675196330676054        23.99113169000000     
    1.676681045342800        23.83125229000000     
    1.678165760009546        23.67238711000000     
    1.679650474676293        23.51452988000000     
    1.681135189343039        23.35767435000000     
    1.682619904009785        23.20181433000000     
    1.684104618676531        23.04694366000000     
    1.685589333343277        22.89305623000000     
    1.687074048010023        22.74014594000000     
    1.688558762676770        22.58820675000000     
    1.690043477343516        22.43723266000000     
    1.691528192010262        22.28721768000000     
    1.693012906677009        22.13815588000000     
    1.694497621343755        21.99004136000000     
    1.695982336010501        21.84286825000000     
    1.697467050677247        21.69663072000000     
    1.698951765343993        21.55132298000000     
    1.700436480010739        21.40693928000000     
    1.701921194677486        21.26347388000000     
    1.703405909344232        21.12092109000000     
    1.704890624010978        20.97927527000000     
    1.706375338677725        20.83853079000000     
    1.707860053344471        20.69868207000000     
    1.709344768011217        20.55972355000000     
    1.710829482677963        20.42164972000000     
    1.712314197344709        20.28445509000000     
    1.713798912011456        20.14813422000000     
    1.715283626678202        20.01268168000000     
    1.716768341344948        19.87809208000000     
    1.718253056011694        19.74436009000000     
    1.719737770678440        19.61148037000000     
    1.721222485345186        19.47944764000000     
    1.722707200011933        19.34825665000000     
    1.724191914678679        19.21790217000000     
    1.725676629345425        19.08837901000000     
    1.727161344012172        18.95968201000000     
    1.728646058678918        18.83180605000000     
    1.730130773345664        18.70474603000000     
    1.731615488012410        18.57849688000000     
    1.733100202679156        18.45305357000000     
    1.734584917345902        18.32841109000000     
    1.736069632012649        18.20456447000000     
    1.737554346679395        18.08150877000000     
    1.739039061346141        17.95923908000000     
    1.740523776012888        17.83775050000000     
    1.742008490679634        17.71703820000000     
    1.743493205346380        17.59709733000000     
    1.744977920013126        17.47792312000000     
    1.746462634679872        17.35951079000000     
    1.747947349346618        17.24185561000000     
    1.749432064013365        17.12495287000000     
    1.750916778680111        17.00879790000000     
    1.752401493346857        16.89338604000000     
    1.753886208013603        16.77871267000000     
    1.755370922680350        16.66477321000000     
    1.756855637347096        16.55156307000000     
    1.758340352013842        16.43907774000000     
    1.759825066680588        16.32731269000000     
    1.761309781347335        16.21626344000000     
    1.762794496014081        16.10592555000000     
    1.764279210680827        15.99629458000000     
    1.765763925347573        15.88736613000000     
    1.767248640014319        15.77913584000000     
    1.768733354681066        15.67159934000000     
    1.770218069347812        15.56475233000000     
    1.771702784014558        15.45859050000000     
    1.773187498681304        15.35310960000000     
    1.774672213348051        15.24830538000000     
    1.776156928014797        15.14417361000000     
    1.777641642681543        15.04071013000000     
    1.779126357348289        14.93791075000000     
    1.780611072015035        14.83577134000000     
    1.782095786681781        14.73428779000000     
    1.783580501348528        14.63345601000000     
    1.785065216015274        14.53327193000000     
    1.786549930682020        14.43373152000000     
    1.788034645348767        14.33483076000000     
    1.789519360015513        14.23656567000000     
    1.791004074682259        14.13893227000000     
    1.792488789349005        14.04192664000000     
    1.793973504015751        13.94554484000000     
    1.795458218682497        13.84978300000000     
    1.796942933349244        13.75463723000000     
    1.798427648015990        13.66010370000000     
    1.799912362682736        13.56617859000000     
    1.801397077349483        13.47285809000000     
    1.802881792016229        13.38013843000000     
    1.804366506682975        13.28801586000000     
    1.805851221349721        13.19648665000000     
    1.807335936016467        13.10554709000000     
    1.808820650683214        13.01519351000000     
    1.810305365349960        12.92542224000000     
    1.811790080016706        12.83622963000000     
    1.813274794683452        12.74761209000000     
    1.814759509350198        12.65956601000000     
    1.816244224016945        12.57208781000000     
    1.817728938683691        12.48517396000000     
    1.819213653350437        12.39882092000000     
    1.820698368017183        12.31302518000000     
    1.822183082683930        12.22778327000000     
    1.823667797350676        12.14309171000000     
    1.825152512017422        12.05894707000000     
    1.826637226684168        11.97534592000000     
    1.828121941350915        11.89228486000000     
    1.829606656017661        11.80976051000000     
    1.831091370684407        11.72776952000000     
    1.832576085351153        11.64630854000000     
    1.834060800017899        11.56537426000000     
    1.835545514684646        11.48496338000000     
    1.837030229351392        11.40507263000000     
    1.838514944018138        11.32569874000000     
    1.839999658684884        11.24683848000000     
    1.841484373351630        11.16848863000000     
    1.842969088018376        11.09064599000000     
    1.844453802685123        11.01330739000000     
    1.845938517351869        10.93646967000000     
    1.847423232018615        10.86012969000000     
    1.848907946685362        10.78428433000000     
    1.850392661352108        10.70893048000000     
    1.851877376018854        10.63406507000000     
    1.853362090685600        10.55968504000000     
    1.854846805352346        10.48578734000000     
    1.856331520019093        10.41236894000000     
    1.857816234685839        10.33942684000000     
    1.859300949352585        10.26695805000000     
    1.860785664019331        10.19495960000000     
    1.862270378686078        10.12342854000000     
    1.863755093352824        10.05236194000000     
    1.865239808019570        9.981756874000000     
    1.866724522686316        9.911610455000000     
    1.868209237353062        9.841919799999999     
    1.869693952019809        9.772682047000000     
    1.871178666686555        9.703894351000001     
    1.872663381353301        9.635553885000000     
    1.874148096020047        9.567657841000001     
    1.875632810686793        9.500203427000001     
    1.877117525353539        9.433187866000001     
    1.878602240020286        9.366608401000001     
    1.880086954687032        9.300462292000001     
    1.881571669353778        9.234746813999999     
    1.883056384020525        9.169459260000000     
    1.884541098687271        9.104596938000000     
    1.886025813354017        9.040157175999999     
    1.887510528020763        8.976137316000001     
    1.888995242687509        8.912534715000000     
    1.890479957354255        8.849346749000000     
    1.891964672021002        8.786570810000001     
    1.893449386687748        8.724204303000000     
    1.894934101354494        8.662244654000000     
    1.896418816021241        8.600689299000001     
    1.897903530687987        8.539535695000000     
    1.899388245354733        8.478781311000001     
    1.900872960021479        8.418423635000000     
    1.902357674688225        8.358460166000000     
    1.903842389354972        8.298888421999999     
    1.905327104021718        8.239705936000000     
    1.906811818688464        8.180910255000001     
    1.908296533355210        8.122498941000000     
    1.909781248021956        8.064469571000000     
    1.911265962688702        8.006819739000001     
    1.912750677355449        7.949547052000000     
    1.914235392022195        7.892649131000000     
    1.915720106688941        7.836123614000000     
    1.917204821355688        7.779968152000000     
    1.918689536022434        7.724180410000000     
    1.920174250689180        7.668758069000000     
    1.921658965355926        7.613698823000000     
    1.923143680022672        7.559000381000000     
    1.924628394689418        7.504660467000000     
    1.926113109356165        7.450676815000000     
    1.927597824022911        7.397047179000000     
    1.929082538689657        7.343769322000000     
    1.930567253356404        7.290841022000000     
    1.932051968023150        7.238260073000000     
    1.933536682689896        7.186024281000000     
    1.935021397356642        7.134131463000000     
    1.936506112023388        7.082579454000000     
    1.937990826690134        7.031366100000000     
    1.939475541356881        6.980489260000000     
    1.940960256023627        6.929946807000000     
    1.942444970690373        6.879736627000000     
    1.943929685357119        6.829856620000000     
    1.945414400023866        6.780304696000000     
    1.946899114690612        6.731078781000000     
    1.948383829357358        6.682176813000000     
    1.949868544024104        6.633596742000000     
    1.951353258690851        6.585336531000000     
    1.952837973357597        6.537394156000000     
    1.954322688024343        6.489767605000000     
    1.955807402691089        6.442454880000000     
    1.957292117357835        6.395453991000000     
    1.958776832024581        6.348762967000000     
    1.960261546691328        6.302379842000000     
    1.961746261358074        6.256302669000000     
    1.963230976024820        6.210529507000000     
    1.964715690691567        6.165058431000000     
    1.966200405358313        6.119887527000000     
    1.967685120025059        6.075014892000000     
    1.969169834691805        6.030438634000000     
    1.970654549358551        5.986156877000000     
    1.972139264025298        5.942167751000000     
    1.973623978692044        5.898469401000000     
    1.975108693358790        5.855059982000000     
    1.976593408025536        5.811937662000000     
    1.978078122692283        5.769100620000000     
    1.979562837359029        5.726547044000000     
    1.981047552025775        5.684275136000000     
    1.982532266692521        5.642283108000000     
    1.984016981359267        5.600569183000000     
    1.985501696026013        5.559131594000000     
    1.986986410692760        5.517968588000000     
    1.988471125359506        5.477078421000000     
    1.989955840026252        5.436459358000000     
    1.991440554692998        5.396109677000000     
    1.992925269359745        5.356027668000000     
    1.994409984026491        5.316211627000000     
    1.995894698693237        5.276659866000000     
    1.997379413359983        5.237370703000000     
    1.998864128026730        5.198342469000000     
    2.000348842693476        5.159573505000000     
    2.001833557360222        5.121062161000000     
    2.003318272026968        5.082806799000000     
    2.004802986693714        5.044805789000000     
    2.006287701360461        5.007057515000000     
    2.007772416027207        4.969560366000000     
    2.009257130693953        4.932312744000000     
    2.010741845360699        4.895313061000000     
    2.012226560027445        4.858559738000000     
    2.013711274694192        4.822051205000000     
    2.015195989360938        4.785785905000000     
    2.016680704027684        4.749762287000000     
    2.018165418694430        4.713978811000000     
    2.019650133361177        4.678433947000000     
    2.021134848027923        4.643126174000000     
    2.022619562694669        4.608053981000000     
    2.024104277361415        4.573215865000000     
    2.025588992028161        4.538610335000000     
    2.027073706694908        4.504235906000000     
    2.028558421361654        4.470091105000000     
    2.030043136028400        4.436174467000000     
    2.031527850695146        4.402484535000000     
    2.033012565361893        4.369019863000000     
    2.034497280028639        4.335779013000000     
    2.035981994695385        4.302760556000000     
    2.037466709362131        4.269963072000000     
    2.038951424028877        4.237385150000000     
    2.040436138695624        4.205025387000000     
    2.041920853362370        4.172882391000000     
    2.043405568029116        4.140954775000000     
    2.044890282695862        4.109241164000000     
    2.046374997362609        4.077740189000000     
    2.047859712029355        4.046450492000000     
    2.049344426696101        4.015370721000000     
    2.050829141362847        3.984499535000000     
    2.052313856029593        3.953835598000000     
    2.053798570696340        3.923377586000000     
    2.055283285363086        3.893124181000000     
    2.056768000029832        3.863074073000000     
    2.058252714696578        3.833225962000000     
    2.059737429363325        3.803578554000000     
    2.061222144030071        3.774130564000000     
    2.062706858696817        3.744880716000000     
    2.064191573363563        3.715827741000000     
    2.065676288030309        3.686970377000000     
    2.067161002697055        3.658307371000000     
    2.068645717363802        3.629837478000000     
