#   Distance (Angstroms)          Energy (eV)
    1.501484714666746        6.968882779000000     
    1.502969429333493        6.923436614000000     
    1.504454144000239        6.878252191000000     
    1.505938858666985        6.833328132000000     
    1.507423573333731        6.788663065000000     
    1.508908288000477        6.744255624000000     
    1.510393002667223        6.700104452000000     
    1.511877717333970        6.656208196000000     
    1.513362432000716        6.612565511000000     
    1.514847146667462        6.569175060000000     
    1.516331861334208        6.526035511000000     
    1.517816576000954        6.483145540000000     
    1.519301290667701        6.440503826000000     
    1.520786005334447        6.398109060000000     
    1.522270720001193        6.355959937000000     
    1.523755434667940        6.314055156000000     
    1.525240149334686        6.272393427000000     
    1.526724864001432        6.230973463000000     
    1.528209578668178        6.189793985000000     
    1.529694293334924        6.148853721000000     
    1.531179008001670        6.108151403000000     
    1.532663722668417        6.067685772000000     
    1.534148437335163        6.027455574000000     
    1.535633152001909        5.987459561000000     
    1.537117866668656        5.947696491000000     
    1.538602581335402        5.908165129000000     
    1.540087296002148        5.868864247000000     
    1.541572010668894        5.829792621000000     
    1.543056725335640        5.790949035000000     
    1.544541440002386        5.752332278000000     
    1.546026154669133        5.713941145000000     
    1.547510869335879        5.675774437000000     
    1.548995584002625        5.637830963000000     
    1.550480298669371        5.600109535000000     
    1.551965013336118        5.562608973000000     
    1.553449728002864        5.525328101000000     
    1.554934442669610        5.488265752000000     
    1.556419157336356        5.451420761000000     
    1.557903872003102        5.414791972000000     
    1.559388586669849        5.378378233000000     
    1.560873301336595        5.342178399000000     
    1.562358016003341        5.306191329000000     
    1.563842730670087        5.270415890000000     
    1.565327445336834        5.234850952000000     
    1.566812160003580        5.199495394000000     
    1.568296874670326        5.164348097000000     
    1.569781589337072        5.129407951000000     
    1.571266304003819        5.094673848000000     
    1.572751018670565        5.060144690000000     
    1.574235733337311        5.025819379000000     
    1.575720448004057        4.991696829000000     
    1.577205162670803        4.957775953000000     
    1.578689877337550        4.924055673000000     
    1.580174592004296        4.890534918000000     
    1.581659306671042        4.857212617000000     
    1.583144021337788        4.824087711000000     
    1.584628736004535        4.791159140000000     
    1.586113450671281        4.758425854000000     
    1.587598165338027        4.725886806000000     
    1.589082880004773        4.693540955000000     
    1.590567594671519        4.661387265000000     
    1.592052309338265        4.629424705000000     
    1.593537024005012        4.597652249000000     
    1.595021738671758        4.566068878000000     
    1.596506453338504        4.534673576000000     
    1.597991168005251        4.503465333000000     
    1.599475882671997        4.472443144000000     
    1.600960597338743        4.441606009000000     
    1.602445312005489        4.410952932000000     
    1.603930026672235        4.380482924000000     
    1.605414741338981        4.350195001000000     
    1.606899456005728        4.320088181000000     
    1.608384170672474        4.290161491000000     
    1.609868885339220        4.260413959000000     
    1.611353600005967        4.230844621000000     
    1.612838314672713        4.201452516000000     
    1.614323029339459        4.172236689000000     
    1.615807744006205        4.143196189000000     
    1.617292458672951        4.114330070000000     
    1.618777173339698        4.085637391000000     
    1.620261888006444        4.057117215000000     
    1.621746602673190        4.028768612000000     
    1.623231317339936        4.000590654000000     
    1.624716032006682        3.972582419000000     
    1.626200746673429        3.944742988000000     
    1.627685461340175        3.917071450000000     
    1.629170176006921        3.889566896000000     
    1.630654890673667        3.862228423000000     
    1.632139605340414        3.835055130000000     
    1.633624320007160        3.808046124000000     
    1.635109034673906        3.781200513000000     
    1.636593749340652        3.754517414000000     
    1.638078464007398        3.727995944000000     
    1.639563178674145        3.701635228000000     
    1.641047893340891        3.675434391000000     
    1.642532608007637        3.649392568000000     
    1.644017322674383        3.623508895000000     
    1.645502037341130        3.597782512000000     
    1.646986752007876        3.572212565000000     
    1.648471466674622        3.546798203000000     
    1.649956181341368        3.521538581000000     
    1.651440896008114        3.496432857000000     
    1.652925610674860        3.471480193000000     
    1.654410325341607        3.446679756000000     
    1.655895040008353        3.422030717000000     
    1.657379754675099        3.397532251000000     
    1.658864469341846        3.373183539000000     
    1.660349184008592        3.348983762000000     
    1.661833898675338        3.324932110000000     
    1.663318613342084        3.301027774000000     
    1.664803328008830        3.277269949000000     
    1.666288042675577        3.253657837000000     
    1.667772757342323        3.230190640000000     
    1.669257472009069        3.206867567000000     
    1.670742186675815        3.183687831000000     
    1.672226901342562        3.160650648000000     
    1.673711616009308        3.137755237000000     
    1.675196330676054        3.115000823000000     
    1.676681045342800        3.092386634000000     
    1.678165760009546        3.069911901000000     
    1.679650474676293        3.047575862000000     
    1.681135189343039        3.025377756000000     
    1.682619904009785        3.003316826000000     
    1.684104618676531        2.981392319000000     
    1.685589333343277        2.959603489000000     
    1.687074048010023        2.937949589000000     
    1.688558762676770        2.916429878000000     
    1.690043477343516        2.895043620000000     
    1.691528192010262        2.873790080000000     
    1.693012906677009        2.852668530000000     
    1.694497621343755        2.831678243000000     
    1.695982336010501        2.810818497000000     
    1.697467050677247        2.790088573000000     
    1.698951765343993        2.769487757000000     
    1.700436480010739        2.749015336000000     
    1.701921194677486        2.728670604000000     
    1.703405909344232        2.708452857000000     
    1.704890624010978        2.688361393000000     
    1.706375338677725        2.668395517000000     
    1.707860053344471        2.648554534000000     
    1.709344768011217        2.628837756000000     
    1.710829482677963        2.609244495000000     
    1.712314197344709        2.589774070000000     
    1.713798912011456        2.570425800000000     
    1.715283626678202        2.551199011000000     
    1.716768341344948        2.532093030000000     
    1.718253056011694        2.513107188000000     
    1.719737770678440        2.494240820000000     
    1.721222485345186        2.475493263000000     
    1.722707200011933        2.456863860000000     
    1.724191914678679        2.438351955000000     
    1.725676629345425        2.419956896000000     
    1.727161344012172        2.401678034000000     
    1.728646058678918        2.383514725000000     
    1.730130773345664        2.365466326000000     
    1.731615488012410        2.347532200000000     
    1.733100202679156        2.329711710000000     
    1.734584917345902        2.312004224000000     
    1.736069632012649        2.294409115000000     
    1.737554346679395        2.276925755000000     
    1.739039061346141        2.259553524000000     
    1.740523776012888        2.242291801000000     
    1.742008490679634        2.225139971000000     
    1.743493205346380        2.208097422000000     
    1.744977920013126        2.191163542000000     
    1.746462634679872        2.174337726000000     
    1.747947349346618        2.157619371000000     
    1.749432064013365        2.141007876000000     
    1.750916778680111        2.124502644000000     
    1.752401493346857        2.108103081000000     
    1.753886208013603        2.091808595000000     
    1.755370922680350        2.075618599000000     
    1.756855637347096        2.059532508000000     
    1.758340352013842        2.043549740000000     
    1.759825066680588        2.027669716000000     
    1.761309781347335        2.011891860000000     
    1.762794496014081        1.996215598000000     
    1.764279210680827        1.980640362000000     
    1.765763925347573        1.965165583000000     
    1.767248640014319        1.949790698000000     
    1.768733354681066        1.934515145000000     
    1.770218069347812        1.919338366000000     
    1.771702784014558        1.904259805000000     
    1.773187498681304        1.889278911000000     
    1.774672213348051        1.874395132000000     
    1.776156928014797        1.859607922000000     
    1.777641642681543        1.844916738000000     
    1.779126357348289        1.830321038000000     
    1.780611072015035        1.815820282000000     
    1.782095786681781        1.801413937000000     
    1.783580501348528        1.787101468000000     
    1.785065216015274        1.772882346000000     
    1.786549930682020        1.758756043000000     
    1.788034645348767        1.744722035000000     
    1.789519360015513        1.730779800000000     
    1.791004074682259        1.716928817000000     
    1.792488789349005        1.703168572000000     
    1.793973504015751        1.689498550000000     
    1.795458218682497        1.675918239000000     
    1.796942933349244        1.662427132000000     
    1.798427648015990        1.649024721000000     
    1.799912362682736        1.635710505000000     
    1.801397077349483        1.622483983000000     
    1.802881792016229        1.609344655000000     
    1.804366506682975        1.596292028000000     
    1.805851221349721        1.583325607000000     
    1.807335936016467        1.570444903000000     
    1.808820650683214        1.557649427000000     
    1.810305365349960        1.544938695000000     
    1.811790080016706        1.532312224000000     
    1.813274794683452        1.519769534000000     
    1.814759509350198        1.507310146000000     
    1.816244224016945        1.494933586000000     
    1.817728938683691        1.482639381000000     
    1.819213653350437        1.470427060000000     
    1.820698368017183        1.458296156000000     
    1.822183082683930        1.446246203000000     
    1.823667797350676        1.434276739000000     
    1.825152512017422        1.422387303000000     
    1.826637226684168        1.410577436000000     
    1.828121941350915        1.398846683000000     
    1.829606656017661        1.387194591000000     
    1.831091370684407        1.375620708000000     
    1.832576085351153        1.364124586000000     
    1.834060800017899        1.352705778000000     
    1.835545514684646        1.341363841000000     
    1.837030229351392        1.330098333000000     
    1.838514944018138        1.318908814000000     
    1.839999658684884        1.307794848000000     
    1.841484373351630        1.296756000000000     
    1.842969088018376        1.285791836000000     
    1.844453802685123        1.274901928000000     
    1.845938517351869        1.264085846000000     
    1.847423232018615        1.253343166000000     
    1.848907946685362        1.242673464000000     
    1.850392661352108        1.232076318000000     
    1.851877376018854        1.221551309000000     
    1.853362090685600        1.211098021000000     
    1.854846805352346        1.200716039000000     
    1.856331520019093        1.190404950000000     
    1.857816234685839        1.180164345000000     
    1.859300949352585        1.169993813000000     
    1.860785664019331        1.159892951000000     
    1.862270378686078        1.149861353000000     
    1.863755093352824        1.139898619000000     
    1.865239808019570        1.130004348000000     
    1.866724522686316        1.120178142000000     
    1.868209237353062        1.110419607000000     
    1.869693952019809        1.100728348000000     
    1.871178666686555        1.091103975000000     
    1.872663381353301        1.081546099000000     
    1.874148096020047        1.072054331000000     
    1.875632810686793        1.062628287000000     
    1.877117525353539        1.053267584000000     
    1.878602240020286        1.043971840000000     
    1.880086954687032        1.034740677000000     
    1.881571669353778        1.025573717000000     
    1.883056384020525        1.016470585000000     
    1.884541098687271        1.007430908000000     
    1.886025813354017       0.9984543148000000     
    1.887510528020763       0.9895404361000001     
    1.888995242687509       0.9806889047000000     
    1.890479957354255       0.9718993551000001     
    1.891964672021002       0.9631714241000001     
    1.893449386687748       0.9545047500000001     
    1.894934101354494       0.9458989733999999     
    1.896418816021241       0.9373537366000001     
    1.897903530687987       0.9288686837000000     
    1.899388245354733       0.9204434609000000     
    1.900872960021479       0.9120777162000000     
    1.902357674688225       0.9037710992999999     
    1.903842389354972       0.8955232620000000     
    1.905327104021718       0.8873338579000000     
    1.906811818688464       0.8792025423000000     
    1.908296533355210       0.8711289723000000     
    1.909781248021956       0.8631128071000001     
    1.911265962688702       0.8551537074999999     
    1.912750677355449       0.8472513361000001     
    1.914235392022195       0.8394053573000001     
    1.915720106688941       0.8316154374000000     
    1.917204821355688       0.8238812442000000     
    1.918689536022434       0.8162024476999999     
    1.920174250689180       0.8085787192000000     
    1.921658965355926       0.8010097320000000     
    1.923143680022672       0.7934951611000000     
    1.924628394689418       0.7860346832000000     
    1.926113109356165       0.7786279769000000     
    1.927597824022911       0.7712747221000001     
    1.929082538689657       0.7639746008000000     
    1.930567253356404       0.7567272965000001     
    1.932051968023150       0.7495324945000000     
    1.933536682689896       0.7423898815999999     
    1.935021397356642       0.7352991465000000     
    1.936506112023388       0.7282599793999999     
    1.937990826690134       0.7212720723000000     
    1.939475541356881       0.7143351186000000     
    1.940960256023627       0.7074488135000000     
    1.942444970690373       0.7006128539000001     
    1.943929685357119       0.6938269381000000     
    1.945414400023866       0.6870907664000000     
    1.946899114690612       0.6804040401000000     
    1.948383829357358       0.6737664627999999     
    1.949868544024104       0.6671777391000000     
    1.951353258690851       0.6606375754000000     
    1.952837973357597       0.6541456799000001     
    1.954322688024343       0.6477017619000000     
    1.955807402691089       0.6413055327000000     
    1.957292117357835       0.6349567049000000     
    1.958776832024581       0.6286549926000000     
    1.960261546691328       0.6224001117000000     
    1.961746261358074       0.6161917794000001     
    1.963230976024820       0.6100297144000000     
    1.964715690691567       0.6039136370000000     
    1.966200405358313       0.5978432691000000     
    1.967685120025059       0.5918183339000000     
    1.969169834691805       0.5858385562000000     
    1.970654549358551       0.5799036622000000     
    1.972139264025298       0.5740133797000000     
    1.973623978692044       0.5681674378000000     
    1.975108693358790       0.5623655673000000     
    1.976593408025536       0.5566075001000001     
    1.978078122692283       0.5508929699000000     
    1.979562837359029       0.5452217116000000     
    1.981047552025775       0.5395934617000000     
    1.982532266692521       0.5340079579000000     
    1.984016981359267       0.5284649396000000     
    1.985501696026013       0.5229641472999999     
    1.986986410692760       0.5175053231000000     
    1.988471125359506       0.5120882105000000     
    1.989955840026252       0.5067125543000000     
    1.991440554692998       0.5013781006000000     
    1.992925269359745       0.4960845972000000     
    1.994409984026491       0.4908317930000000     
    1.995894698693237       0.4856194381000000     
    1.997379413359983       0.4804472844000000     
    1.998864128026730       0.4753150848000000     
    2.000348842693476       0.4702225937000001     
    2.001833557360222       0.4651695667000000     
    2.003318272026968       0.4601557608000000     
    2.004802986693714       0.4551809344000000     
    2.006287701360461       0.4502448471000000     
    2.007772416027207       0.4453472597000000     
    2.009257130693953       0.4404879346000000     
    2.010741845360699       0.4356666353000000     
    2.012226560027445       0.4308831266000000     
    2.013711274694192       0.4261371745000000     
    2.015195989360938       0.4214285464000000     
    2.016680704027684       0.4167570110000000     
    2.018165418694430       0.4121223381000000     
    2.019650133361177       0.4075242988000000     
    2.021134848027923       0.4029626656000000     
    2.022619562694669       0.3984372121000000     
    2.024104277361415       0.3939477131000000     
    2.025588992028161       0.3894939447000000     
    2.027073706694908       0.3850756842000000     
    2.028558421361654       0.3806927101000000     
    2.030043136028400       0.3763448022000000     
    2.031527850695146       0.3720317414000000     
    2.033012565361893       0.3677533099000000     
    2.034497280028639       0.3635092908000000     
    2.035981994695385       0.3592994689000000     
    2.037466709362131       0.3551236296000000     
    2.038951424028877       0.3509815600000000     
    2.040436138695624       0.3468730480000000     
    2.041920853362370       0.3427978828000000     
    2.043405568029116       0.3387558547000000     
    2.044890282695862       0.3347467552000000     
    2.046374997362609       0.3307703771000000     
    2.047859712029355       0.3268265139000000     
    2.049344426696101       0.3229149607000000     
    2.050829141362847       0.3190355135000000     
    2.052313856029593       0.3151879694000000     
    2.053798570696340       0.3113721266000000     
    2.055283285363086       0.3075877846000000     
    2.056768000029832       0.3038347438000000     
    2.058252714696578       0.3001128058000000     
    2.059737429363325       0.2964217733000000     
    2.061222144030071       0.2927614500000000     
    2.062706858696817       0.2891316407000000     
    2.064191573363563       0.2855321514000000     
    2.065676288030309       0.2819627890000000     
    2.067161002697055       0.2784233615000000     
    2.068645717363802       0.2749136781000000     
