#   Distance (Angstroms)          Energy (eV)
    1.501484714666746        11.04208105000000     
    1.502969429333493        10.97225328000000     
    1.504454144000239        10.90281059000000     
    1.505938858666985        10.83375102000000     
    1.507423573333731        10.76507264000000     
    1.508908288000477        10.69677350000000     
    1.510393002667223        10.62885170000000     
    1.511877717333970        10.56130532000000     
    1.513362432000716        10.49413245000000     
    1.514847146667462        10.42733121000000     
    1.516331861334208        10.36089970000000     
    1.517816576000954        10.29483605000000     
    1.519301290667701        10.22913840000000     
    1.520786005334447        10.16380488000000     
    1.522270720001193        10.09883365000000     
    1.523755434667940        10.03422287000000     
    1.525240149334686        9.969970709000000     
    1.526724864001432        9.906075338999999     
    1.528209578668178        9.842534949999999     
    1.529694293334924        9.779347736000000     
    1.531179008001670        9.716511901000001     
    1.532663722668417        9.654025658000000     
    1.534148437335163        9.591887227999999     
    1.535633152001909        9.530094839000000     
    1.537117866668656        9.468646730000000     
    1.538602581335402        9.407541148000000     
    1.540087296002148        9.346776347000000     
    1.541572010668894        9.286350591000000     
    1.543056725335640        9.226262151000000     
    1.544541440002386        9.166509307000000     
    1.546026154669133        9.107090347000000     
    1.547510869335879        9.048003569000000     
    1.548995584002625        8.989247276000000     
    1.550480298669371        8.930819782000000     
    1.551965013336118        8.872719406000000     
    1.553449728002864        8.814944479999999     
    1.554934442669610        8.757493339000000     
    1.556419157336356        8.700364327999999     
    1.557903872003102        8.643555802000000     
    1.559388586669849        8.587066119999999     
    1.560873301336595        8.530893651000000     
    1.562358016003341        8.475036772999999     
    1.563842730670087        8.419493871000000     
    1.565327445336834        8.364263335000000     
    1.566812160003580        8.309343567999999     
    1.568296874670326        8.254732975000000     
    1.569781589337072        8.200429974000000     
    1.571266304003819        8.146432987000001     
    1.572751018670565        8.092740445000000     
    1.574235733337311        8.039350787000000     
    1.575720448004057        7.986262458000000     
    1.577205162670803        7.933473912000000     
    1.578689877337550        7.880983609000000     
    1.580174592004296        7.828790019000000     
    1.581659306671042        7.776891616000000     
    1.583144021337788        7.725286885000000     
    1.584628736004535        7.673974315000000     
    1.586113450671281        7.622952404000000     
    1.587598165338027        7.572219657000000     
    1.589082880004773        7.521774587000000     
    1.590567594671519        7.471615712000000     
    1.592052309338265        7.421741560000000     
    1.593537024005012        7.372150664000000     
    1.595021738671758        7.322841566000000     
    1.596506453338504        7.273812812000000     
    1.597991168005251        7.225062958000000     
    1.599475882671997        7.176590566000000     
    1.600960597338743        7.128394205000000     
    1.602445312005489        7.080472450000000     
    1.603930026672235        7.032823885000000     
    1.605414741338981        6.985447098000000     
    1.606899456005728        6.938340687000000     
    1.608384170672474        6.891503255000000     
    1.609868885339220        6.844933411000000     
    1.611353600005967        6.798629772000000     
    1.612838314672713        6.752590963000000     
    1.614323029339459        6.706815612000000     
    1.615807744006205        6.661302358000000     
    1.617292458672951        6.616049842000000     
    1.618777173339698        6.571056716000000     
    1.620261888006444        6.526321636000000     
    1.621746602673190        6.481843265000000     
    1.623231317339936        6.437620272000000     
    1.624716032006682        6.393651334000000     
    1.626200746673429        6.349935133000000     
    1.627685461340175        6.306470358000000     
    1.629170176006921        6.263255704000000     
    1.630654890673667        6.220289873000000     
    1.632139605340414        6.177571573000000     
    1.633624320007160        6.135099518000000     
    1.635109034673906        6.092872429000000     
    1.636593749340652        6.050889031000000     
    1.638078464007398        6.009148059000000     
    1.639563178674145        5.967648251000000     
    1.641047893340891        5.926388352000000     
    1.642532608007637        5.885367115000000     
    1.644017322674383        5.844583295000000     
    1.645502037341130        5.804035656000000     
    1.646986752007876        5.763722969000000     
    1.648471466674622        5.723644008000000     
    1.649956181341368        5.683797556000000     
    1.651440896008114        5.644182399000000     
    1.652925610674860        5.604797330000000     
    1.654410325341607        5.565641149000000     
    1.655895040008353        5.526712662000000     
    1.657379754675099        5.488010678000000     
    1.658864469341846        5.449534015000000     
    1.660349184008592        5.411281495000000     
    1.661833898675338        5.373251946000000     
    1.663318613342084        5.335444202000000     
    1.664803328008830        5.297857104000000     
    1.666288042675577        5.260489495000000     
    1.667772757342323        5.223340228000000     
    1.669257472009069        5.186408158000000     
    1.670742186675815        5.149692149000000     
    1.672226901342562        5.113191067000000     
    1.673711616009308        5.076903786000000     
    1.675196330676054        5.040829185000000     
    1.676681045342800        5.004966147000000     
    1.678165760009546        4.969313564000000     
    1.679650474676293        4.933870329000000     
    1.681135189343039        4.898635344000000     
    1.682619904009785        4.863607515000000     
    1.684104618676531        4.828785752000000     
    1.685589333343277        4.794168973000000     
    1.687074048010023        4.759756099000000     
    1.688558762676770        4.725546058000000     
    1.690043477343516        4.691537783000000     
    1.691528192010262        4.657730210000000     
    1.693012906677009        4.624122283000000     
    1.694497621343755        4.590712951000000     
    1.695982336010501        4.557501166000000     
    1.697467050677247        4.524485886000000     
    1.698951765343993        4.491666077000000     
    1.700436480010739        4.459040705000000     
    1.701921194677486        4.426608745000000     
    1.703405909344232        4.394369176000000     
    1.704890624010978        4.362320981000000     
    1.706375338677725        4.330463150000000     
    1.707860053344471        4.298794675000000     
    1.709344768011217        4.267314556000000     
    1.710829482677963        4.236021797000000     
    1.712314197344709        4.204915405000000     
    1.713798912011456        4.173994394000000     
    1.715283626678202        4.143257783000000     
    1.716768341344948        4.112704594000000     
    1.718253056011694        4.082333856000000     
    1.719737770678440        4.052144601000000     
    1.721222485345186        4.022135867000000     
    1.722707200011933        3.992306695000000     
    1.724191914678679        3.962656133000000     
    1.725676629345425        3.933183232000000     
    1.727161344012172        3.903887049000000     
    1.728646058678918        3.874766645000000     
    1.730130773345664        3.845821085000000     
    1.731615488012410        3.817049439000000     
    1.733100202679156        3.788450782000000     
    1.734584917345902        3.760024194000000     
    1.736069632012649        3.731768758000000     
    1.737554346679395        3.703683563000000     
    1.739039061346141        3.675767702000000     
    1.740523776012888        3.648020271000000     
    1.742008490679634        3.620440374000000     
    1.743493205346380        3.593027116000000     
    1.744977920013126        3.565779608000000     
    1.746462634679872        3.538696965000000     
    1.747947349346618        3.511778307000000     
    1.749432064013365        3.485022757000000     
    1.750916778680111        3.458429444000000     
    1.752401493346857        3.431997499000000     
    1.753886208013603        3.405726061000000     
    1.755370922680350        3.379614270000000     
    1.756855637347096        3.353661271000000     
    1.758340352013842        3.327866214000000     
    1.759825066680588        3.302228253000000     
    1.761309781347335        3.276746545000000     
    1.762794496014081        3.251420253000000     
    1.764279210680827        3.226248543000000     
    1.765763925347573        3.201230586000000     
    1.767248640014319        3.176365556000000     
    1.768733354681066        3.151652631000000     
    1.770218069347812        3.127090995000000     
    1.771702784014558        3.102679834000000     
    1.773187498681304        3.078418339000000     
    1.774672213348051        3.054305705000000     
    1.776156928014797        3.030341131000000     
    1.777641642681543        3.006523819000000     
    1.779126357348289        2.982852977000000     
    1.780611072015035        2.959327815000000     
    1.782095786681781        2.935947547000000     
    1.783580501348528        2.912711393000000     
    1.785065216015274        2.889618574000000     
    1.786549930682020        2.866668318000000     
    1.788034645348767        2.843859853000000     
    1.789519360015513        2.821192415000000     
    1.791004074682259        2.798665241000000     
    1.792488789349005        2.776277573000000     
    1.793973504015751        2.754028656000000     
    1.795458218682497        2.731917739000000     
    1.796942933349244        2.709944075000000     
    1.798427648015990        2.688106921000000     
    1.799912362682736        2.666405538000000     
    1.801397077349483        2.644839188000000     
    1.802881792016229        2.623407140000000     
    1.804366506682975        2.602108666000000     
    1.805851221349721        2.580943039000000     
    1.807335936016467        2.559909540000000     
    1.808820650683214        2.539007449000000     
    1.810305365349960        2.518236054000000     
    1.811790080016706        2.497594642000000     
    1.813274794683452        2.477082508000000     
    1.814759509350198        2.456698948000000     
    1.816244224016945        2.436443261000000     
    1.817728938683691        2.416314751000000     
    1.819213653350437        2.396312725000000     
    1.820698368017183        2.376436494000000     
    1.822183082683930        2.356685372000000     
    1.823667797350676        2.337058675000000     
    1.825152512017422        2.317555724000000     
    1.826637226684168        2.298175845000000     
    1.828121941350915        2.278918364000000     
    1.829606656017661        2.259782611000000     
    1.831091370684407        2.240767923000000     
    1.832576085351153        2.221873635000000     
    1.834060800017899        2.203099090000000     
    1.835545514684646        2.184443630000000     
    1.837030229351392        2.165906605000000     
    1.838514944018138        2.147487364000000     
    1.839999658684884        2.129185262000000     
    1.841484373351630        2.110999655000000     
    1.842969088018376        2.092929906000000     
    1.844453802685123        2.074975376000000     
    1.845938517351869        2.057135434000000     
    1.847423232018615        2.039409450000000     
    1.848907946685362        2.021796796000000     
    1.850392661352108        2.004296850000000     
    1.851877376018854        1.986908990000000     
    1.853362090685600        1.969632600000000     
    1.854846805352346        1.952467066000000     
    1.856331520019093        1.935411776000000     
    1.857816234685839        1.918466122000000     
    1.859300949352585        1.901629500000000     
    1.860785664019331        1.884901307000000     
    1.862270378686078        1.868280945000000     
    1.863755093352824        1.851767819000000     
    1.865239808019570        1.835361334000000     
    1.866724522686316        1.819060902000000     
    1.868209237353062        1.802865936000000     
    1.869693952019809        1.786775851000000     
    1.871178666686555        1.770790067000000     
    1.872663381353301        1.754908006000000     
    1.874148096020047        1.739129093000000     
    1.875632810686793        1.723452755000000     
    1.877117525353539        1.707878423000000     
    1.878602240020286        1.692405532000000     
    1.880086954687032        1.677033517000000     
    1.881571669353778        1.661761818000000     
    1.883056384020525        1.646589877000000     
    1.884541098687271        1.631517139000000     
    1.886025813354017        1.616543052000000     
    1.887510528020763        1.601667066000000     
    1.888995242687509        1.586888635000000     
    1.890479957354255        1.572207215000000     
    1.891964672021002        1.557622265000000     
    1.893449386687748        1.543133247000000     
    1.894934101354494        1.528739624000000     
    1.896418816021241        1.514440865000000     
    1.897903530687987        1.500236439000000     
    1.899388245354733        1.486125819000000     
    1.900872960021479        1.472108479000000     
    1.902357674688225        1.458183898000000     
    1.903842389354972        1.444351556000000     
    1.905327104021718        1.430610936000000     
    1.906811818688464        1.416961525000000     
    1.908296533355210        1.403402810000000     
    1.909781248021956        1.389934282000000     
    1.911265962688702        1.376555436000000     
    1.912750677355449        1.363265768000000     
    1.914235392022195        1.350064775000000     
    1.915720106688941        1.336951960000000     
    1.917204821355688        1.323926826000000     
    1.918689536022434        1.310988880000000     
    1.920174250689180        1.298137630000000     
    1.921658965355926        1.285372589000000     
    1.923143680022672        1.272693269000000     
    1.924628394689418        1.260099188000000     
    1.926113109356165        1.247589864000000     
    1.927597824022911        1.235164818000000     
    1.929082538689657        1.222823575000000     
    1.930567253356404        1.210565660000000     
    1.932051968023150        1.198390602000000     
    1.933536682689896        1.186297932000000     
    1.935021397356642        1.174287184000000     
    1.936506112023388        1.162357893000000     
    1.937990826690134        1.150509597000000     
    1.939475541356881        1.138741838000000     
    1.940960256023627        1.127054158000000     
    1.942444970690373        1.115446101000000     
    1.943929685357119        1.103917217000000     
    1.945414400023866        1.092467054000000     
    1.946899114690612        1.081095166000000     
    1.948383829357358        1.069801105000000     
    1.949868544024104        1.058584430000000     
    1.951353258690851        1.047444699000000     
    1.952837973357597        1.036381474000000     
    1.954322688024343        1.025394318000000     
    1.955807402691089        1.014482797000000     
    1.957292117357835        1.003646480000000     
    1.958776832024581       0.9928849353000000     
    1.960261546691328       0.9821977368000001     
    1.961746261358074       0.9715844589000000     
    1.963230976024820       0.9610446785000001     
    1.964715690691567       0.9505779746000000     
    1.966200405358313       0.9401839284999999     
    1.967685120025059       0.9298621234999999     
    1.969169834691805       0.9196121452000000     
    1.970654549358551       0.9094335811999999     
    1.972139264025298       0.8993260213999999     
    1.973623978692044       0.8892890576999999     
    1.975108693358790       0.8793222840000000     
    1.976593408025536       0.8694252965000000     
    1.978078122692283       0.8595976933999999     
    1.979562837359029       0.8498390750000000     
    1.981047552025775       0.8401490436000000     
    1.982532266692521       0.8305272036000000     
    1.984016981359267       0.8209731613999999     
    1.985501696026013       0.8114865256000000     
    1.986986410692760       0.8020669065000000     
    1.988471125359506       0.7927139168000000     
    1.989955840026252       0.7834271710000000     
    1.991440554692998       0.7742062856000000     
    1.992925269359745       0.7650508791000000     
    1.994409984026491       0.7559605720000000     
    1.995894698693237       0.7469349866000000     
    1.997379413359983       0.7379737476000000     
    1.998864128026730       0.7290764811000000     
    2.000348842693476       0.7202428156000000     
    2.001833557360222       0.7114723812000000     
    2.003318272026968       0.7027648100000000     
    2.004802986693714       0.6941197363000001     
    2.006287701360461       0.6855367958000000     
    2.007772416027207       0.6770156264000001     
    2.009257130693953       0.6685558680000000     
    2.010741845360699       0.6601571620000000     
    2.012226560027445       0.6518191520999999     
    2.013711274694192       0.6435414833999999     
    2.015195989360938       0.6353238033000000     
    2.016680704027684       0.6271657606000000     
    2.018165418694430       0.6190670063000000     
    2.019650133361177       0.6110271931000000     
    2.021134848027923       0.6030459753000001     
    2.022619562694669       0.5951230092999999     
    2.024104277361415       0.5872579532000000     
    2.025588992028161       0.5794504667000000     
    2.027073706694908       0.5717002116000000     
    2.028558421361654       0.5640068512999999     
    2.030043136028400       0.5563700509000000     
    2.031527850695146       0.5487894773000001     
    2.033012565361893       0.5412647992000000     
    2.034497280028639       0.5337956869000000     
    2.035981994695385       0.5263818126000000     
    2.037466709362131       0.5190228502000000     
    2.038951424028877       0.5117184750000000     
    2.040436138695624       0.5044683645000000     
    2.041920853362370       0.4972721975000000     
    2.043405568029116       0.4901296546000000     
    2.044890282695862       0.4830404181000000     
    2.046374997362609       0.4760041720000000     
    2.047859712029355       0.4690206018000000     
    2.049344426696101       0.4620893949000000     
    2.050829141362847       0.4552102402000000     
    2.052313856029593       0.4483828282000000     
    2.053798570696340       0.4416068510000001     
    2.055283285363086       0.4348820025000000     
    2.056768000029832       0.4282079780000000     
    2.058252714696578       0.4215844746000000     
    2.059737429363325       0.4150111909000000     
    2.061222144030071       0.4084878269000000     
    2.062706858696817       0.4020140846000000     
    2.064191573363563       0.3955896672000000     
    2.065676288030309       0.3892142796000000     
    2.067161002697055       0.3828876283000000     
    2.068645717363802       0.3766094214000000     
