# Embedding energy of Ni
# Electron density      Energy (eV)
    0.1002645777E-02   -0.5521848303E-01
    0.2005291554E-02   -0.8320564970E-01
    0.3007937330E-02   -0.1072885558E+00
    0.4010583107E-02   -0.1282516850E+00
    0.5013228884E-02   -0.1469618043E+00
    0.6015874661E-02   -0.1642193233E+00
    0.7018520438E-02   -0.1803476134E+00
    0.8021166214E-02   -0.1955417935E+00
    0.9023811991E-02   -0.2099790049E+00
    0.1002645777E-01   -0.2237849379E+00
    0.1102910354E-01   -0.2370486718E+00
    0.1203174932E-01   -0.2498419137E+00
    0.1303439510E-01   -0.2622243224E+00
    0.1403704088E-01   -0.2742427734E+00
    0.1503968665E-01   -0.2859363566E+00
    0.1604233243E-01   -0.2973384224E+00
    0.1704497821E-01   -0.3084766395E+00
    0.1804762398E-01   -0.3193751697E+00
    0.1905026976E-01   -0.3300546935E+00
    0.2005291554E-01   -0.3405332220E+00
    0.2105556131E-01   -0.3508267126E+00
    0.2205820709E-01   -0.3609490293E+00
    0.2306085287E-01   -0.3709126557E+00
    0.2406349864E-01   -0.3807286403E+00
    0.2506614442E-01   -0.3904068729E+00
    0.2606879020E-01   -0.3999563312E+00
    0.2707143597E-01   -0.4093850195E+00
    0.2807408175E-01   -0.4187002784E+00
    0.2907672753E-01   -0.4279087441E+00
    0.3007937330E-01   -0.4370164616E+00
    0.3108201908E-01   -0.4460290041E+00
    0.3208466486E-01   -0.4549514258E+00
    0.3308731063E-01   -0.4637884195E+00
    0.3408995641E-01   -0.4725442877E+00
    0.3509260219E-01   -0.4812229978E+00
    0.3609524797E-01   -0.4898282462E+00
    0.3709789374E-01   -0.4983634259E+00
    0.3810053952E-01   -0.5068317145E+00
    0.3910318530E-01   -0.5152360553E+00
    0.4010583107E-01   -0.5235791859E+00
    0.4110847685E-01   -0.5318636761E+00
    0.4211112263E-01   -0.5400919055E+00
    0.4311376840E-01   -0.5482661174E+00
    0.4411641418E-01   -0.5563884052E+00
    0.4511905996E-01   -0.5644607282E+00
    0.4612170573E-01   -0.5724849361E+00
    0.4712435151E-01   -0.5804627538E+00
    0.4812699729E-01   -0.5883958149E+00
    0.4912964306E-01   -0.5962856512E+00
    0.5013228884E-01   -0.6041337045E+00
    0.5113493462E-01   -0.6119413424E+00
    0.5213758039E-01   -0.6197098457E+00
    0.5314022617E-01   -0.6274404317E+00
    0.5414287195E-01   -0.6351342472E+00
    0.5514551772E-01   -0.6427923758E+00
    0.5614816350E-01   -0.6504158485E+00
    0.5715080928E-01   -0.6580056346E+00
    0.5815345505E-01   -0.6655626579E+00
    0.5915610083E-01   -0.6730877915E+00
    0.6015874661E-01   -0.6805818627E+00
    0.6116139239E-01   -0.6880456608E+00
    0.6216403816E-01   -0.6954799298E+00
    0.6316668394E-01   -0.7028853804E+00
    0.6416932972E-01   -0.7102626864E+00
    0.6517197549E-01   -0.7176124872E+00
    0.6617462127E-01   -0.7249353936E+00
    0.6717726705E-01   -0.7322319832E+00
    0.6817991282E-01   -0.7395028082E+00
    0.6918255860E-01   -0.7467483932E+00
    0.7018520438E-01   -0.7539692370E+00
    0.7118785015E-01   -0.7611658166E+00
    0.7219049593E-01   -0.7683385836E+00
    0.7319314171E-01   -0.7754879707E+00
    0.7419578748E-01   -0.7826143888E+00
    0.7519843326E-01   -0.7897182294E+00
    0.7620107904E-01   -0.7967998674E+00
    0.7720372481E-01   -0.8038596576E+00
    0.7820637059E-01   -0.8108979403E+00
    0.7920901637E-01   -0.8179150394E+00
    0.8021166214E-01   -0.8249112630E+00
    0.8121430792E-01   -0.8318869066E+00
    0.8221695370E-01   -0.8388422500E+00
    0.8321959948E-01   -0.8457775616E+00
    0.8422224525E-01   -0.8526930968E+00
    0.8522489103E-01   -0.8595890988E+00
    0.8622753681E-01   -0.8664658007E+00
    0.8723018258E-01   -0.8733234233E+00
    0.8823282836E-01   -0.8801621783E+00
    0.8923547414E-01   -0.8869822670E+00
    0.9023811991E-01   -0.8937838813E+00
    0.9124076569E-01   -0.9005672047E+00
    0.9224341147E-01   -0.9073324113E+00
    0.9324605724E-01   -0.9140796677E+00
    0.9424870302E-01   -0.9208091324E+00
    0.9525134880E-01   -0.9275209560E+00
    0.9625399457E-01   -0.9342152828E+00
    0.9725664035E-01   -0.9408922492E+00
    0.9825928613E-01   -0.9475519860E+00
    0.9926193190E-01   -0.9541946170E+00
    0.1002645777E+00   -0.9608202601E+00
    0.1012672235E+00   -0.9674290281E+00
    0.1022698692E+00   -0.9740210268E+00
    0.1032725150E+00   -0.9805963578E+00
    0.1042751608E+00   -0.9871551181E+00
    0.1052778066E+00   -0.9936973988E+00
    0.1062804523E+00   -0.1000223286E+01
    0.1072830981E+00   -0.1006732863E+01
    0.1082857439E+00   -0.1013226208E+01
    0.1092883897E+00   -0.1019703394E+01
    0.1102910354E+00   -0.1026164491E+01
    0.1112936812E+00   -0.1032609566E+01
    0.1122963270E+00   -0.1039038682E+01
    0.1132989728E+00   -0.1045451896E+01
    0.1143016186E+00   -0.1051849267E+01
    0.1153042643E+00   -0.1058230845E+01
    0.1163069101E+00   -0.1064596681E+01
    0.1173095559E+00   -0.1070946821E+01
    0.1183122017E+00   -0.1077281310E+01
    0.1193148474E+00   -0.1083600189E+01
    0.1203174932E+00   -0.1089903496E+01
    0.1213201390E+00   -0.1096191268E+01
    0.1223227848E+00   -0.1102463538E+01
    0.1233254305E+00   -0.1108720339E+01
    0.1243280763E+00   -0.1114961700E+01
    0.1253307221E+00   -0.1121187649E+01
    0.1263333679E+00   -0.1127398211E+01
    0.1273360137E+00   -0.1133593411E+01
    0.1283386594E+00   -0.1139773267E+01
    0.1293413052E+00   -0.1145937798E+01
    0.1303439510E+00   -0.1152087009E+01
    0.1313465968E+00   -0.1158220901E+01
    0.1323492425E+00   -0.1164339468E+01
    0.1333518883E+00   -0.1170442698E+01
    0.1343545341E+00   -0.1176530574E+01
    0.1353571799E+00   -0.1182603072E+01
    0.1363598256E+00   -0.1188660166E+01
    0.1373624714E+00   -0.1194701823E+01
    0.1383651172E+00   -0.1200728008E+01
    0.1393677630E+00   -0.1206738680E+01
    0.1403704088E+00   -0.1212733797E+01
    0.1413730545E+00   -0.1218713313E+01
    0.1423757003E+00   -0.1224677179E+01
    0.1433783461E+00   -0.1230625344E+01
    0.1443809919E+00   -0.1236557754E+01
    0.1453836376E+00   -0.1242474353E+01
    0.1463862834E+00   -0.1248375085E+01
    0.1473889292E+00   -0.1254259890E+01
    0.1483915750E+00   -0.1260128709E+01
    0.1493942207E+00   -0.1265981478E+01
    0.1503968665E+00   -0.1271818137E+01
    0.1513995123E+00   -0.1277638621E+01
    0.1524021581E+00   -0.1283442866E+01
    0.1534048039E+00   -0.1289230808E+01
    0.1544074496E+00   -0.1295002382E+01
    0.1554100954E+00   -0.1300757522E+01
    0.1564127412E+00   -0.1306496164E+01
    0.1574153870E+00   -0.1312218241E+01
    0.1584180327E+00   -0.1317923688E+01
    0.1594206785E+00   -0.1323612440E+01
    0.1604233243E+00   -0.1329284433E+01
    0.1614259701E+00   -0.1334939602E+01
    0.1624286158E+00   -0.1340577883E+01
    0.1634312616E+00   -0.1346199212E+01
    0.1644339074E+00   -0.1351803526E+01
    0.1654365532E+00   -0.1357390765E+01
    0.1664391990E+00   -0.1362960867E+01
    0.1674418447E+00   -0.1368513771E+01
    0.1684444905E+00   -0.1374049417E+01
    0.1694471363E+00   -0.1379567748E+01
    0.1704497821E+00   -0.1385068705E+01
    0.1714524278E+00   -0.1390552233E+01
    0.1724550736E+00   -0.1396018276E+01
    0.1734577194E+00   -0.1401466780E+01
    0.1744603652E+00   -0.1406897693E+01
    0.1754630109E+00   -0.1412310962E+01
    0.1764656567E+00   -0.1417706537E+01
    0.1774683025E+00   -0.1423084370E+01
    0.1784709483E+00   -0.1428444411E+01
    0.1794735940E+00   -0.1433786616E+01
    0.1804762398E+00   -0.1439110940E+01
    0.1814788856E+00   -0.1444417339E+01
    0.1824815314E+00   -0.1449705771E+01
    0.1834841772E+00   -0.1454976196E+01
    0.1844868229E+00   -0.1460228574E+01
    0.1854894687E+00   -0.1465462868E+01
    0.1864921145E+00   -0.1470679043E+01
    0.1874947603E+00   -0.1475877064E+01
    0.1884974060E+00   -0.1481056897E+01
    0.1895000518E+00   -0.1486218513E+01
    0.1905026976E+00   -0.1491361882E+01
    0.1915053434E+00   -0.1496486976E+01
    0.1925079891E+00   -0.1501593769E+01
    0.1935106349E+00   -0.1506682237E+01
    0.1945132807E+00   -0.1511752358E+01
    0.1955159265E+00   -0.1516804111E+01
    0.1965185723E+00   -0.1521837478E+01
    0.1975212180E+00   -0.1526852439E+01
    0.1985238638E+00   -0.1531848980E+01
    0.1995265096E+00   -0.1536827086E+01
    0.2005291554E+00   -0.1541786743E+01
    0.2015318011E+00   -0.1546727942E+01
    0.2025344469E+00   -0.1551650673E+01
    0.2035370927E+00   -0.1556554927E+01
    0.2045397385E+00   -0.1561440698E+01
    0.2055423842E+00   -0.1566307979E+01
    0.2065450300E+00   -0.1571156769E+01
    0.2075476758E+00   -0.1575987064E+01
    0.2085503216E+00   -0.1580798863E+01
    0.2095529674E+00   -0.1585592168E+01
    0.2105556131E+00   -0.1590366980E+01
    0.2115582589E+00   -0.1595123301E+01
    0.2125609047E+00   -0.1599861136E+01
    0.2135635505E+00   -0.1604580492E+01
    0.2145661962E+00   -0.1609281376E+01
    0.2155688420E+00   -0.1613963796E+01
    0.2165714878E+00   -0.1618627761E+01
    0.2175741336E+00   -0.1623273282E+01
    0.2185767793E+00   -0.1627900373E+01
    0.2195794251E+00   -0.1632509045E+01
    0.2205820709E+00   -0.1637099313E+01
    0.2215847167E+00   -0.1641671193E+01
    0.2225873625E+00   -0.1646224701E+01
    0.2235900082E+00   -0.1650759856E+01
    0.2245926540E+00   -0.1655276676E+01
    0.2255952998E+00   -0.1659775182E+01
    0.2265979456E+00   -0.1664255393E+01
    0.2276005913E+00   -0.1668717333E+01
    0.2286032371E+00   -0.1673161025E+01
    0.2296058829E+00   -0.1677586492E+01
    0.2306085287E+00   -0.1681993761E+01
    0.2316111744E+00   -0.1686382856E+01
    0.2326138202E+00   -0.1690753805E+01
    0.2336164660E+00   -0.1695106636E+01
    0.2346191118E+00   -0.1699441376E+01
    0.2356217575E+00   -0.1703758058E+01
    0.2366244033E+00   -0.1708056711E+01
    0.2376270491E+00   -0.1712337366E+01
    0.2386296949E+00   -0.1716600055E+01
    0.2396323407E+00   -0.1720844813E+01
    0.2406349864E+00   -0.1725071673E+01
    0.2416376322E+00   -0.1729280668E+01
    0.2426402780E+00   -0.1733471836E+01
    0.2436429238E+00   -0.1737645213E+01
    0.2446455695E+00   -0.1741800836E+01
    0.2456482153E+00   -0.1745938742E+01
    0.2466508611E+00   -0.1750058969E+01
    0.2476535069E+00   -0.1754161558E+01
    0.2486561526E+00   -0.1758246547E+01
    0.2496587984E+00   -0.1762313979E+01
    0.2506614442E+00   -0.1766363893E+01
    0.2516640900E+00   -0.1770396332E+01
    0.2526667358E+00   -0.1774411338E+01
    0.2536693815E+00   -0.1778408954E+01
    0.2546720273E+00   -0.1782389225E+01
    0.2556746731E+00   -0.1786352194E+01
    0.2566773189E+00   -0.1790297906E+01
    0.2576799646E+00   -0.1794226407E+01
    0.2586826104E+00   -0.1798137743E+01
    0.2596852562E+00   -0.1802031961E+01
    0.2606879020E+00   -0.1805909107E+01
    0.2616905477E+00   -0.1809769229E+01
    0.2626931935E+00   -0.1813612376E+01
    0.2636958393E+00   -0.1817438595E+01
    0.2646984851E+00   -0.1821247937E+01
    0.2657011309E+00   -0.1825040451E+01
    0.2667037766E+00   -0.1828816186E+01
    0.2677064224E+00   -0.1832575194E+01
    0.2687090682E+00   -0.1836317524E+01
    0.2697117140E+00   -0.1840043229E+01
    0.2707143597E+00   -0.1843752360E+01
    0.2717170055E+00   -0.1847444969E+01
    0.2727196513E+00   -0.1851121109E+01
    0.2737222971E+00   -0.1854780833E+01
    0.2747249428E+00   -0.1858424194E+01
    0.2757275886E+00   -0.1862051246E+01
    0.2767302344E+00   -0.1865662042E+01
    0.2777328802E+00   -0.1869256638E+01
    0.2787355260E+00   -0.1872835087E+01
    0.2797381717E+00   -0.1876397445E+01
    0.2807408175E+00   -0.1879943767E+01
    0.2817434633E+00   -0.1883474109E+01
    0.2827461091E+00   -0.1886988527E+01
    0.2837487548E+00   -0.1890487076E+01
    0.2847514006E+00   -0.1893969814E+01
    0.2857540464E+00   -0.1897436797E+01
    0.2867566922E+00   -0.1900888081E+01
    0.2877593379E+00   -0.1904323726E+01
    0.2887619837E+00   -0.1907743787E+01
    0.2897646295E+00   -0.1911148324E+01
    0.2907672753E+00   -0.1914537392E+01
    0.2917699211E+00   -0.1917911051E+01
    0.2927725668E+00   -0.1921269359E+01
    0.2937752126E+00   -0.1924612376E+01
    0.2947778584E+00   -0.1927940160E+01
    0.2957805042E+00   -0.1931252769E+01
    0.2967831499E+00   -0.1934550263E+01
    0.2977857957E+00   -0.1937832701E+01
    0.2987884415E+00   -0.1941100143E+01
    0.2997910873E+00   -0.1944352649E+01
    0.3007937330E+00   -0.1947590278E+01
    0.3017963788E+00   -0.1950813091E+01
    0.3027990246E+00   -0.1954021147E+01
    0.3038016704E+00   -0.1957214507E+01
    0.3048043161E+00   -0.1960393231E+01
    0.3058069619E+00   -0.1963557380E+01
    0.3068096077E+00   -0.1966707015E+01
    0.3078122535E+00   -0.1969842197E+01
    0.3088148993E+00   -0.1972962985E+01
    0.3098175450E+00   -0.1976069442E+01
    0.3108201908E+00   -0.1979161627E+01
    0.3118228366E+00   -0.1982239604E+01
    0.3128254824E+00   -0.1985303432E+01
    0.3138281281E+00   -0.1988353173E+01
    0.3148307739E+00   -0.1991388888E+01
    0.3158334197E+00   -0.1994410640E+01
    0.3168360655E+00   -0.1997418489E+01
    0.3178387112E+00   -0.2000412497E+01
    0.3188413570E+00   -0.2003392726E+01
    0.3198440028E+00   -0.2006359238E+01
    0.3208466486E+00   -0.2009312093E+01
    0.3218492944E+00   -0.2012251355E+01
    0.3228519401E+00   -0.2015177084E+01
    0.3238545859E+00   -0.2018089343E+01
    0.3248572317E+00   -0.2020988194E+01
    0.3258598775E+00   -0.2023873697E+01
    0.3268625232E+00   -0.2026745916E+01
    0.3278651690E+00   -0.2029604913E+01
    0.3288678148E+00   -0.2032450748E+01
    0.3298704606E+00   -0.2035283485E+01
    0.3308731063E+00   -0.2038103184E+01
    0.3318757521E+00   -0.2040909909E+01
    0.3328783979E+00   -0.2043703721E+01
    0.3338810437E+00   -0.2046484681E+01
    0.3348836895E+00   -0.2049252852E+01
    0.3358863352E+00   -0.2052008295E+01
    0.3368889810E+00   -0.2054751073E+01
    0.3378916268E+00   -0.2057481247E+01
    0.3388942726E+00   -0.2060198879E+01
    0.3398969183E+00   -0.2062904031E+01
    0.3408995641E+00   -0.2065596764E+01
    0.3419022099E+00   -0.2068277140E+01
    0.3429048557E+00   -0.2070945222E+01
    0.3439075014E+00   -0.2073601070E+01
    0.3449101472E+00   -0.2076244746E+01
    0.3459127930E+00   -0.2078876310E+01
    0.3469154388E+00   -0.2081495826E+01
    0.3479180846E+00   -0.2084103354E+01
    0.3489207303E+00   -0.2086698957E+01
    0.3499233761E+00   -0.2089282693E+01
    0.3509260219E+00   -0.2091854626E+01
    0.3519286677E+00   -0.2094414815E+01
    0.3529313134E+00   -0.2096963323E+01
    0.3539339592E+00   -0.2099500210E+01
    0.3549366050E+00   -0.2102025536E+01
    0.3559392508E+00   -0.2104539364E+01
    0.3569418965E+00   -0.2107041753E+01
    0.3579445423E+00   -0.2109532764E+01
    0.3589471881E+00   -0.2112012458E+01
    0.3599498339E+00   -0.2114480896E+01
    0.3609524797E+00   -0.2116938137E+01
    0.3619551254E+00   -0.2119384241E+01
    0.3629577712E+00   -0.2121819270E+01
    0.3639604170E+00   -0.2124243283E+01
    0.3649630628E+00   -0.2126656340E+01
    0.3659657085E+00   -0.2129058501E+01
    0.3669683543E+00   -0.2131449825E+01
    0.3679710001E+00   -0.2133830373E+01
    0.3689736459E+00   -0.2136200203E+01
    0.3699762916E+00   -0.2138559376E+01
    0.3709789374E+00   -0.2140907951E+01
    0.3719815832E+00   -0.2143245986E+01
    0.3729842290E+00   -0.2145573542E+01
    0.3739868747E+00   -0.2147890676E+01
    0.3749895205E+00   -0.2150197449E+01
    0.3759921663E+00   -0.2152493918E+01
    0.3769948121E+00   -0.2154780142E+01
    0.3779974579E+00   -0.2157056180E+01
    0.3790001036E+00   -0.2159322089E+01
    0.3800027494E+00   -0.2161577929E+01
    0.3810053952E+00   -0.2163823758E+01
    0.3820080410E+00   -0.2166059633E+01
    0.3830106867E+00   -0.2168285612E+01
    0.3840133325E+00   -0.2170501752E+01
    0.3850159783E+00   -0.2172708113E+01
    0.3860186241E+00   -0.2174904750E+01
    0.3870212698E+00   -0.2177091721E+01
    0.3880239156E+00   -0.2179269083E+01
    0.3890265614E+00   -0.2181436894E+01
    0.3900292072E+00   -0.2183595210E+01
    0.3910318530E+00   -0.2185744088E+01
    0.3920344987E+00   -0.2187883585E+01
    0.3930371445E+00   -0.2190013756E+01
    0.3940397903E+00   -0.2192134658E+01
    0.3950424361E+00   -0.2194246348E+01
    0.3960450818E+00   -0.2196348882E+01
    0.3970477276E+00   -0.2198442314E+01
    0.3980503734E+00   -0.2200526701E+01
    0.3990530192E+00   -0.2202602099E+01
    0.4000556649E+00   -0.2204668562E+01
    0.4010583107E+00   -0.2206726147E+01
    0.4020609565E+00   -0.2208774908E+01
    0.4030636023E+00   -0.2210814899E+01
    0.4040662481E+00   -0.2212846177E+01
    0.4050688938E+00   -0.2214868794E+01
    0.4060715396E+00   -0.2216882807E+01
    0.4070741854E+00   -0.2218888269E+01
    0.4080768312E+00   -0.2220885234E+01
    0.4090794769E+00   -0.2222873755E+01
    0.4100821227E+00   -0.2224853888E+01
    0.4110847685E+00   -0.2226825686E+01
    0.4120874143E+00   -0.2228789201E+01
    0.4130900600E+00   -0.2230744488E+01
    0.4140927058E+00   -0.2232691600E+01
    0.4150953516E+00   -0.2234630589E+01
    0.4160979974E+00   -0.2236561508E+01
    0.4171006432E+00   -0.2238484410E+01
    0.4181032889E+00   -0.2240399348E+01
    0.4191059347E+00   -0.2242306373E+01
    0.4201085805E+00   -0.2244205539E+01
    0.4211112263E+00   -0.2246096896E+01
    0.4221138720E+00   -0.2247980497E+01
    0.4231165178E+00   -0.2249856393E+01
    0.4241191636E+00   -0.2251724635E+01
    0.4251218094E+00   -0.2253585276E+01
    0.4261244551E+00   -0.2255438365E+01
    0.4271271009E+00   -0.2257283955E+01
    0.4281297467E+00   -0.2259122095E+01
    0.4291323925E+00   -0.2260952837E+01
    0.4301350383E+00   -0.2262776231E+01
    0.4311376840E+00   -0.2264592326E+01
    0.4321403298E+00   -0.2266401174E+01
    0.4331429756E+00   -0.2268202824E+01
    0.4341456214E+00   -0.2269997326E+01
    0.4351482671E+00   -0.2271784729E+01
    0.4361509129E+00   -0.2273565082E+01
    0.4371535587E+00   -0.2275338436E+01
    0.4381562045E+00   -0.2277104839E+01
    0.4391588502E+00   -0.2278864339E+01
    0.4401614960E+00   -0.2280616985E+01
    0.4411641418E+00   -0.2282362825E+01
    0.4421667876E+00   -0.2284101910E+01
    0.4431694333E+00   -0.2285834285E+01
    0.4441720791E+00   -0.2287560000E+01
    0.4451747249E+00   -0.2289279102E+01
    0.4461773707E+00   -0.2290991638E+01
    0.4471800165E+00   -0.2292697656E+01
    0.4481826622E+00   -0.2294397203E+01
    0.4491853080E+00   -0.2296090327E+01
    0.4501879538E+00   -0.2297777074E+01
    0.4511905996E+00   -0.2299457490E+01
    0.4521932453E+00   -0.2301131623E+01
    0.4531958911E+00   -0.2302799519E+01
    0.4541985369E+00   -0.2304461224E+01
    0.4552011827E+00   -0.2306116783E+01
    0.4562038284E+00   -0.2307766242E+01
    0.4572064742E+00   -0.2309409648E+01
    0.4582091200E+00   -0.2311047046E+01
    0.4592117658E+00   -0.2312678479E+01
    0.4602144116E+00   -0.2314303996E+01
    0.4612170573E+00   -0.2315923639E+01
    0.4622197031E+00   -0.2317537454E+01
    0.4632223489E+00   -0.2319145483E+01
    0.4642249947E+00   -0.2320747774E+01
    0.4652276404E+00   -0.2322344370E+01
    0.4662302862E+00   -0.2323935314E+01
    0.4672329320E+00   -0.2325520651E+01
    0.4682355778E+00   -0.2327100422E+01
    0.4692382235E+00   -0.2328674673E+01
    0.4702408693E+00   -0.2330243447E+01
    0.4712435151E+00   -0.2331806787E+01
    0.4722461609E+00   -0.2333364736E+01
    0.4732488067E+00   -0.2334917335E+01
    0.4742514524E+00   -0.2336464628E+01
    0.4752540982E+00   -0.2338006657E+01
    0.4762567440E+00   -0.2339543464E+01
    0.4772593898E+00   -0.2341075093E+01
    0.4782620355E+00   -0.2342601583E+01
    0.4792646813E+00   -0.2344122978E+01
    0.4802673271E+00   -0.2345639316E+01
    0.4812699729E+00   -0.2347150640E+01
    0.4822726186E+00   -0.2348656993E+01
    0.4832752644E+00   -0.2350158414E+01
    0.4842779102E+00   -0.2351654944E+01
    0.4852805560E+00   -0.2353146624E+01
    0.4862832018E+00   -0.2354633494E+01
    0.4872858475E+00   -0.2356115595E+01
